507
508
506
506
508
512
512
510
513
513
512
513
516
519
519
515
508
512
514
504
507
507
504
503
508
513
517
518
515
515
515
512
512
512
505
506
505
507
511
503
499
509
509
510
511
515
516
516
514
513
519
518
520
517
505
503
503
508
514
507
503
507
506
509
510
515
514
513
517
518
516
513
513
516
512
512
510
504
505
503
504
501
503
508
510
513
516
520
523
515
512
510
513
513
512
506
506
509
515
508
506
506
500
502
511
513
518
524
523
517
515
513
510
508
510
511
508
504
501
502
505
505
502
507
511
515
517
517
521
518
518
521
519
514
502
503
504
504
511
514
513
505
503
508
510
512
512
515
516
515
514
517
513
511
508
502
503
502
502
504
510
508
503
510
512
518
526
527
524
519
510
511
514
512
508
504
504
503
503
505
510
507
509
511
514
514
516
519
512
514
511
515
513
511
513
508
508
509
504
502
505
504
507
507
508
513
514
522
522
519
516
511
515
512
506
505
504
503
507
510
518
513
510
507
510
512
512
515
516
518
518
517
515
512
506
504
503
505
509
511
502
506
507
506
508
515
519
516
512
514
515
520
519
516
513
509
510
503
499
502
508
511
507
509
512
511
514
517
516
517
521
521
516
509
506
505
503
505
507
508
508
503
508
512
512
511
516
517
517
520
519
511
509
512
508
504
502
504
510
508
508
511
511
511
516
518
518
515
514
518
518
516
515
509
506
503
502
504
504
504
503
507
510
510
514
513
519
519
518
515
513
515
509
510
512
512
509
503
499
499
503
510
510
512
515
520
517
519
519
519
516
519
516
513
511
510
508
513
510
494
482
493
505
512
513
511
518
519
519
514
514
516
519
514
513
507
505
507
506
504
504
513
511
508
507
512
516
516
513
511
519
524
511
506
508
512
508
508
515
508
504
505
504
510
504
508
512
515
522
521
516
517
519
512
505
503
509
505
505
504
508
505
502
502
510
513
516
518
521
520
511
509
514
515
512
511
508
501
502
509
508
508
508
507
507
511
516
520
519
518
515
515
512
504
509
511
506
507
507
508
504
506
508
508
510
511
514
519
523
521
520
515
514
516
511
508
507
505
504
497
500
504
500
504
516
526
529
524
519
514
516
515
512
508
509
510
506
505
504
504
507
504
506
507
506
511
517
518
513
515
518
516
515
514
508
513
513
503
494
499
508
512
511
514
516
515
516
520
520
517
514
511
513
516
509
503
502
500
496
499
505
511
507
509
513
515
516
520
520
519
519
518
518
516
513
511
508
502
501
504
505
503
504
507
511
514
515
520
518
517
516
516
512
509
506
510
512
507
505
509
510
506
506
508
509
513
519
517
512
512
516
517
518
513
511
515
510
508
509
505
501
505
507
507
512
511
511
516
517
516
516
519
520
516
511
505
506
501
499
502
504
511
514
512
508
511
512
515
516
515
515
516
519
510
506
510
508
504
506
507
512
508
501
507
511
514
511
508
515
519
521
519
516
515
521
517
507
504
504
508
507
502
504
509
509
505
504
512
519
518
517
519
518
517
515
516
509
505
505
502
499
504
509
512
512
514
513
519
517
516
514
515
513
508
511
518
508
500
504
503
501
503
508
512
511
512
514
513
516
518
517
515
513
515
511
508
508
505
503
507
512
512
509
507
510
512
515
515
519
519
513
508
512
516
512
504
504
509
508
505
508
507
506
505
507
508
513
520
521
514
514
517
519
513
509
509
512
515
510
504
504
504
503
505
511
514
519
517
515
512
517
519
515
514
515
511
509
503
504
505
503
502
502
504
510
518
524
521
521
517
513
515
516
513
505
501
504
508
507
504
505
510
511
509
508
508
514
516
518
518
514
514
523
523
514
504
504
502
505
502
505
511
512
508
508
510
513
515
516
517
515
515
515
513
512
507
502
505
515
509
505
513
510
504
508
512
509
508
516
519
521
520
520
515
507
500
503
509
512
512
507
507
506
506
513
509
513
519
519
519
520
515
514
510
512
511
508
502
505
503
503
504
507
507
511
507
508
519
519
518
515
518
513
510
508
509
513
519
519
511
505
499
499
504
509
513
515
523
513
511
513
514
514
514
511
509
509
509
505
499
504
508
512
510
510
512
515
515
510
509
514
520
516
516
516
517
514
507
500
499
506
508
507
504
508
516
524
521
515
515
517
514
509
512
516
510
502
501
504
505
504
505
503
504
508
513
516
519
516
520
519
513
512
518
514
511
508
502
499
505
510
506
504
510
510
520
518
518
514
513
513
512
512
512
505
507
510
508
505
506
510
504
506
512
512
512
514
516
514
515
516
512
511
515
517
513
511
503
504
507
509
506
503
504
506
512
516
519
514
516
515
518
520
518
509
502
504
509
507
516
512
506
510
510
510
517
515
511
512
512
513
512
511
511
515
513
511
508
501
499
506
512
507
506
510
513
515
519
513
513
515
515
516
520
515
509
508
503
502
503
504
504
505
510
508
509
519
520
517
515
520
523
514
515
511
511
507
505
504
501
502
499
498
500
514
518
517
521
516
522
524
520
519
514
512
508
502
497
504
507
509
508
504
506
504
509
513
517
516
520
521
520
518
512
511
509
508
510
507
503
503
505
511
504
508
510
512
512
516
520
516
514
515
520
522
511
508
508
511
508
502
501
503
509
511
510
512
514
515
514
516
519
515
511
513
508
504
508
509
506
503
503
506
510
511
511
515
520
515
516
524
524
519
512
510
507
508
503
503
504
504
504
503
505
514
515
515
513
515
513
519
520
516
513
510
504
501
505
510
513
510
510
506
508
514
513
511
509
512
517
516
517
511
508
505
508
511
513
516
506
499
507
510
511
511
513
511
511
517
519
519
515
512
511
508
505
504
508
509
505
507
510
508
505
509
513
515
517
515
519
518
512
513
515
513
508
507
506
504
504
502
505
506
508
508
511
513
522
518
513
516
518
518
513
510
511
508
502
504
505
506
510
509
509
508
512
518
516
512
510
512
513
519
517
517
511
510
513
514
511
504
502
501
501
507
509
513
513
512
517
521
521
521
519
519
512
505
498
498
506
504
505
507
507
508
511
513
514
514
518
516
513
510
517
518
514
513
511
506
505
503
501
496
505
511
508
510
515
520
528
526
522
520
515
509
508
504
502
497
496
500
509
514
515
515
514
513
513
510
512
515
516
513
514
511
511
509
504
502
500
502
505
508
514
521
521
518
516
515
510
511
522
519
512
508
508
509
506
505
508
501
500
504
508
511
516
518
519
513
507
508
510
516
520
520
515
515
511
505
501
504
504
506
505
510
515
516
514
512
511
511
512
519
518
515
511
512
508
504
502
501
503
508
511
513
520
518
513
513
512
512
512
523
519
509
498
502
507
506
504
509
513
511
512
510
513
515
519
515
517
514
515
518
512
509
504
502
501
504
502
506
512
509
504
504
513
521
522
519
517
513
507
512
525
515
510
512
509
505
501
503
499
500
504
512
520
526
519
517
518
515
513
512
510
505
503
505
506
509
508
509
515
505
500
503
508
513
516
519
523
522
516
512
509
510
511
506
508
505
508
508
509
504
505
508
509
516
519
517
513
515
519
515
514
512
512
512
508
502
503
497
494
502
514
516
519
518
523
522
517
523
518
512
512
509
500
505
504
504
504
500
501
500
505
518
521
517
515
515
518
519
514
514
512
512
509
510
511
504
502
503
501
500
504
511
515
518
516
517
516
512
510
512
513
518
515
510
508
505
512
509
500
500
512
515
515
513
515
517
515
516
515
514
511
511
507
505
506
509
506
505
504
504
507
513
513
512
513
515
514
513
517
521
516
519
512
512
508
503
500
500
498
503
511
515
514
515
523
522
520
517
507
504
510
515
517
512
503
509
510
503
503
500
507
505
512
516
519
517
518
515
513
516
514
512
509
505
503
502
500
504
510
511
509
511
511
511
518
525
518
517
519
515
512
507
510
513
507
512
509
500
502
504
507
509
511
512
509
507
515
521
521
518
510
512
508
503
503
503
507
511
511
511
509
509
515
516
515
520
518
519
519
524
513
504
503
504
507
508
504
507
505
508
508
505
509
516
515
518
519
515
512
511
513
515
506
504
507
512
511
507
511
510
505
504
511
518
520
520
523
521
514
510
511
515
510
501
495
502
511
503
502
501
509
511
525
521
524
517
511
512
512
513
509
509
511
508
508
508
504
497
501
511
507
507
511
520
523
516
512
512
519
515
514
511
504
507
509
513
512
504
508
513
514
513
516
516
511
513
513
515
513
512
509
511
507
507
505
506
504
502
498
502
504
514
518
518
516
524
519
512
514
514
513
513
514
508
502
501
498
502
509
505
508
514
512
510
516
519
523
523
516
516
518
514
513
509
503
494
499
502
502
495
498
516
523
523
519
512
515
520
521
512
512
517
518
504
502
503
502
499
500
506
506
513
521
516
512
511
524
537
538
527
511
492
486
504
502
506
509
505
508
511
513
518
517
508
509
519
517
506
500
504
521
525
518
516
511
501
502
511
511
507
505
505
512
511
512
516
516
519
520
514
512
512
503
499
495
509
521
508
499
499
503
503
511
512
511
524
519
519
523
519
520
519
518
512
504
499
504
510
509
499
504
505
503
510
525
526
518
514
516
510
505
505
499
498
510
524
513
510
522
513
494
499
519
524
519
510
503
515
524
521
516
500
498
499
509
509
505
505
520
524
514
512
507
499
507
505
515
529
524
520
514
498
501
513
514
506
498
497
495
489
494
508
531
527
522
524
524
520
527
516
504
514
525
511
503
508
511
497
495
495
497
505
516
518
521
513
509
508
513
529
527
513
508
502
497
497
499
504
515
506
506
508
505
497
507
525
538
547
529
529
531
524
500
496
497
497
509
510
493
495
497
516
518
515
519
508
502
506
517
520
524
519
514
509
505
503
515
508
484
487
487
511
533
529
527
523
515
509
511
524
522
518
511
504
504
504
492
494
502
501
504
512
511
512
515
525
524
528
528
516
501
499
504
511
516
510
504
508
516
521
505
496
500
500
500
510
514
513
523
527
521
513
510
513
513
521
516
506
499
495
496
499
509
518
516
520
521
524
512
507
505
498
487
489
506
536
539
524
513
511
512
512
500
501
494
495
497
521
534
530
532
519
510
505
507
505
499
488
499
504
509
513
515
515
499
493
491
501
514
520
530
523
509
521
567
579
552
521
484
462
501
499
472
460
469
479
497
509
516
549
585
597
563
531
512
507
508
500
492
486
474
464
468
473
480
488
487
496
512
519
522
507
504
516
549
568
561
541
526
518
501
476
440
392
391
402
406
439
484
503
525
557
591
662
717
719
647
612
603
536
484
432
401
399
402
406
439
438
481
524
537
509
468
444
488
555
644
649
603
643
594
429
423
429
427
482
452
453
422
415
431
421
389
471
649
702
679
651
619
531
502
537
498
421
430
440
436
427
452
604
781
782
759
688
692
598
421
331
360
442
489
406
363
504
757
764
584
516
505
451
371
354
401
337
284
243
282
452
660
699
568
434
402
502
593
754
620
542
500
530
507
481
590
729
710
596
664
745
650
476
403
348
323
372
385
353
353
369
406
463
615
617
542
555
583
579
517
444
468
516
502
500
538
518
493
469
494
511
515
509
519
545
568
560
524
453
440
490
512
498
455
466
550
620
566
564
552
493
435
426
411
405
407
398
488
621
648
694
693
691
655
518
476
441
458
460
444
387
370
426
496
474
486
545
616
653
564
471
454
436
438
528
518
508
567
575
500
424
423
480
655
691
604
540
516
496
451
431
415
444
515
609
777
639
478
442
468
466
451
484
547
511
454
439
476
511
479
481
483
471
493
505
527
601
604
535
481
488
505
506
497
477
489
501
498
494
495
519
575
582
515
477
455
457
479
464
563
567
558
519
512
521
548
564
535
480
514
591
588
515
485
477
454
382
377
365
369
447
531
661
745
744
642
582
547
450
403
431
487
510
541
565
565
489
422
436
454
477
508
508
537
522
484
518
549
567
500
472
478
520
530
508
505
513
526
514
512
510
504
500
500
499
512
519
520
507
499
497
495
506
502
500
510
514
513
524
526
519
519
533
526
487
463
491
500
514
537
536
518
507
555
587
533
506
499
504
509
500
500
511
523
491
490
507
512
510
510
507
504
506
506
507
510
511
508
509
511
513
515
513
513
514
508
512
507
509
513
513
511
516
519
523
515
506
508
511
511
505
503
510
511
508
507
509
510
506
501
504
512
512
512
512
510
510
514
512
515
517
515
516
512
508
508
508
504
505
503
509
512
518
512
509
512
511
518
521
514
507
507
512
514
508
516
519
513
507
503
509
504
505
507
510
516
508
504
499
512
524
521
527
518
508
502
508
510
503
511
509
506
510
513
518
527
522
512
505
503
510
512
506
507
508
503
508
512
510
508
508
510
506
504
514
520
522
524
523
516
508
508
507
505
502
510
514
506
510
514
512
507
504
508
507
501
502
512
506
517
530
520
518
511
508
504
503
499
500
505
518
519
518
509
507
506
507
502
500
512
520
517
505
494
496
521
539
553
543
515
505
511
531
523
498
483
483
496
508
517
511
504
508
512
512
511
510
507
505
505
506
506
505
511
510
508
510
517
517
514
514
512
516
510
504
506
508
511
516
508
505
504
504
521
533
527
513
505
512
512
510
519
519
512
505
508
510
511
508
511
510
504
506
505
508
510
515
507
506
507
513
520
516
512
516
516
513
515
509
504
505
509
515
511
510
504
499
508
518
516
512
508
524
524
520
527
516
501
495
501
505
506
499
502
509
515
516
516
509
511
515
512
513
513
508
518
515
510
505
505
507
510
508
513
512
514
504
503
508
507
506
513
524
529
515
507
512
519
519
507
501
497
506
514
513
508
508
516
510
507
510
518
518
515
516
515
511
509
508
507
504
510
515
503
504
509
514
508
507
516
515
513
516
512
515
518
513
506
506
499
515
508
506
518
527
531
525
508
503
512
504
502
508
510
511
507
501
502
500
495
495
508
529
534
529
500
491
505
513
512
522
535
531
519
514
508
498
505
536
549
516
499
497
495
496
497
498
497
502
508
510
513
514
512
511
519
512
513
506
502
504
505
512
513
513
506
508
518
531
536
518
512
502
501
499
504
516
511
500
502
508
503
508
508
508
508
519
530
528
508
500
516
519
524
537
533
528
508
498
508
507
506
506
496
502
508
509
504
508
511
510
512
509
506
503
513
518
509
505
504
509
508
513
510
507
509
504
501
508
525
538
523
521
513
511
510
504
504
510
512
510
506
499
501
510
514
506
500
519
532
524
519
516
512
513
510
503
509
508
504
507
511
518
522
511
505
501
504
509
506
509
508
504
499
507
517
519
515
494
501
510
505
521
531
524
531
532
539
537
528
515
502
492
482
487
506
504
506
505
500
493
494
510
535
544
527
509
503
502
511
536
533
512
503
495
490
497
495
501
516
528
519
511
502
494
500
499
502
504
508
510
512
524
539
547
547
515
506
511
506
497
494
505
515
512
502
494
508
526
522
507
503
510
509
519
516
516
514
522
497
487
493
506
530
537
533
527
519
506
503
497
502
507
514
512
506
496
503
506
500
491
494
504
505
529
540
513
513
536
552
530
497
495
507
517
511
505
499
506
518
517
502
496
493
489
487
487
489
499
495
497
495
508
540
559
531
506
544
560
539
523
513
511
514
499
502
521
530
533
522
489
494
507
502
521
508
505
502
514
522
503
494
487
485
492
487
486
480
481
488
513
560
584
577
588
545
507
500
491
498
515
512
495
496
495
505
496
499
505
491
496
493
484
481
466
450
482
485
488
494
538
588
599
582
555
585
580
539
523
494
478
465
492
521
513
497
471
462
463
507
525
532
516
512
527
553
514
473
459
484
539
544
528
515
527
524
517
516
490
461
472
519
528
513
500
482
480
542
574
554
583
570
556
525
477
480
508
507
467
451
449
478
493
496
499
488
477
515
553
557
579
575
531
480
474
461
489
507
463
441
435
471
576
723
704
539
458
492
530
536
512
483
474
483
487
471
454
448
446
458
512
565
552
555
584
592
524
536
519
514
474
471
473
516
549
555
521
454
428
431
443
454
479
515
540
516
541
596
578
563
556
566
546
509
490
534
558
543
519
475
440
437
460
459
516
486
455
487
541
561
547
535
502
518
536
512
465
455
479
536
563
504
472
477
563
610
547
493
458
460
468
500
519
519
606
679
549
459
454
417
422
449
528
583
573
588
559
515
497
484
470
503
488
467
472
507
572
544
493
453
473
530
528
509
518
505
492
522
606
532
465
444
472
504
523
478
453
467
571
654
622
539
555
556
495
435
440
466
499
487
473
517
559
529
519
497
460
451
513
600
563
563
478
512
567
590
505
444
473
512
452
457
487
483
543
572
508
466
508
572
527
504
516
491
500
502
519
540
506
524
503
432
445
472
467
518
620
606
558
477
445
581
592
541
475
496
552
539
537
522
500
478
475
479
479
484
466
462
477
505
547
542
523
507
513
534
515
517
508
508
506
507
498
489
479
480
496
526
535
549
608
576
525
504
491
488
490
489
496
501
498
496
498
506
507
515
522
524
524
523
502
500
499
508
513
519
520
513
522
518
511
511
508
506
508
510
520
512
504
498
499
504
505
503
505
511
519
521
510
502
505
516
525
533
527
518
515
504
500
498
504
508
511
509
504
504
510
516
513
514
520
516
508
504
516
517
514
510
511
516
510
499
500
512
510
521
518
507
507
510
510
519
519
519
515
503
508
505
499
504
505
511
514
510
511
512
515
512
510
512
514
515
519
519
505
507
506
501
501
519
522
510
509
506
504
507
510
504
505
513
519
513
515
515
511
509
511
508
510
508
512
515
506
506
504
510
513
514
519
520
515
507
505
511
510
510
509
516
521
511
503
501
504
509
509
511
517
519
512
509
511
516
512
506
512
511
508
504
508
508
503
499
500
505
511
521
517
516
523
519
518
515
512
511
509
510
510
512
518
519
512
510
510
503
507
504
505
504
510
511
517
511
510
511
513
513
510
505
500
504
511
519
523
521
516
513
513
509
507
504
506
512
509
513
513
511
511
516
504
496
501
504
505
507
508
509
513
527
526
520
518
512
511
507
505
512
518
512
504
504
515
512
504
504
502
507
506
517
519
515
515
518
515
510
505
508
507
508
505
493
500
507
523
540
527
519
517
508
504
502
502
507
521
524
519
522
513
508
508
505
502
502
502
507
508
508
507
506
505
516
522
519
514
507
507
510
509
510
513
510
506
498
504
523
523
528
515
509
512
511
511
512
512
508
505
510
507
510
510
510
505
505
506
502
499
506
506
516
521
523
519
521
516
517
511
515
513
507
504
495
494
499
513
521
527
531
529
517
510
502
497
490
499
515
525
523
521
508
498
498
504
504
516
513
514
511
513
514
509
507
507
512
518
514
516
514
511
511
515
506
505
506
511
509
505
510
513
515
513
511
513
516
519
511
512
511
508
504
506
508
508
505
507
511
511
512
518
516
514
516
512
509
505
507
511
511
517
523
515
504
512
508
510
507
507
504
510
510
509
512
518
518
515
512
510
508
511
508
504
500
499
494
495
506
522
529
534
535
526
521
521
517
511
505
502
505
504
502
500
504
510
510
508
506
506
510
509
510
510
511
510
510
515
519
512
515
512
510
510
510
509
510
511
505
506
510
513
515
521
515
517
520
515
512
510
501
503
508
505
507
513
511
508
505
506
509
513
512
505
507
506
511
508
515
531
537
526
522
519
509
501
503
501
500
503
504
506
504
504
515
524
519
508
505
515
519
520
515
517
519
511
506
502
501
506
500
494
496
502
500
499
510
511
510
502
531
579
584
551
517
498
485
487
492
495
494
493
491
498
506
515
519
511
500
484
487
512
537
524
508
508
544
554
535
515
501
499
505
514
521
509
516
550
513
487
494
486
485
499
511
507
507
527
508
486
509
530
507
510
512
505
499
479
490
551
590
543
496
514
561
527
506
527
547
529
508
492
483
476
475
492
507
512
513
513
511
508
504
506
503
493
491
498
513
509
507
516
539
526
508
507
514
514
511
520
515
504
500
502
506
514
506
499
513
516
499
492
488
499
508
521
531
554
562
548
527
510
498
485
486
504
486
470
475
492
502
502
489
508
548
568
559
480
440
475
480
503
600
613
517
496
536
543
528
500
510
481
432
500
595
629
591
503
472
490
509
513
491
466
467
499
494
464
503
524
519
513
512
503
495
494
489
507
501
502
487
500
533
563
525
511
526
550
552
523
497
497
477
503
548
551
542
489
477
490
478
461
444
445
499
581
541
536
532
572
550
503
502
523
506
492
528
547
502
494
502
502
510
503
556
591
526
462
429
427
439
452
472
499
502
481
485
596
613
589
591
613
596
550
489
472
489
483
473
501
494
467
462
481
514
544
546
515
474
467
498
514
527
535
531
526
538
569
515
492
490
508
516
465
429
408
408
441
476
470
483
611
690
690
595
543
559
602
540
492
481
473
452
423
425
464
496
539
535
578
595
553
484
480
495
472
459
454
460
497
550
545
504
510
543
519
465
460
500
544
544
514
506
501
516
507
503
526
570
554
521
502
492
490
477
456
487
511
580
620
596
506
459
483
510
475
448
446
497
508
514
537
558
566
547
513
531
593
570
467
429
397
431
519
578
529
501
491
500
552
536
513
489
483
479
485
517
527
513
485
488
534
531
491
459
447
481
544
524
561
669
622
532
528
481
451
483
483
475
496
558
542
510
460
455
509
500
442
436
494
571
594
562
526
481
483
540
615
548
515
501
485
515
601
577
487
438
409
459
543
535
515
537
502
456
486
520
561
648
576
510
486
466
423
393
376
388
358
360
451
651
764
705
669
666
650
636
511
461
455
463
435
398
419
434
438
495
530
538
522
536
535
503
497
526
531
496
466
481
531
526
544
536
526
511
448
422
459
526
546
496
488
527
555
604
573
543
524
507
480
493
514
465
438
432
450
481
560
616
582
543
513
492
536
529
515
519
560
614
564
482
491
555
516
479
449
446
452
467
476
480
487
530
555
529
504
503
498
489
508
530
527
505
498
505
512
508
503
507
511
511
503
496
495
509
499
533
559
583
584
539
490
476
483
489
495
505
511
505
512
516
509
500
502
511
520
516
506
503
509
515
517
518
507
504
505
513
520
513
500
504
512
513
511
511
513
510
513
523
518
513
510
506
508
518
508
492
496
509
519
515
518
519
511
514
523
512
506
510
513
504
509
511
515
513
498
502
512
519
515
519
516
507
509
513
515
513
507
502
495
502
507
509
510
515
512
513
519
510
505
510
511
515
515
514
508
509
512
515
512
509
508
512
508
512
516
517
521
511
500
508
518
515
514
517
516
515
509
506
502
500
502
508
511
508
503
506
515
516
508
509
511
511
512
511
518
521
518
517
511
512
504
499
499
508
505
506
514
515
513
512
510
517
521
518
522
514
502
497
519
524
517
511
507
503
495
505
503
501
506
512
504
509
513
522
516
505
508
506
512
519
513
515
517
517
511
504
506
508
515
519
519
513
509
508
505
499
511
521
518
526
514
503
495
504
500
506
511
516
503
494
490
506
512
515
541
531
516
507
515
523
527
533
522
517
512
511
500
496
489
486
493
508
513
510
514
511
513
519
515
519
515
511
515
514
511
510
506
500
507
516
520
524
515
505
506
512
514
504
502
504
500
502
504
511
518
522
516
506
503
505
511
516
516
518
508
518
523
513
502
507
515
513
508
495
503
510
515
511
522
527
519
509
517
519
508
507
506
515
519
508
512
510
505
501
503
499
509
511
521
525
524
517
506
504
503
502
506
513
514
504
504
503
505
507
512
518
520
514
511
507
505
504
508
511
521
516
519
514
511
503
504
511
508
504
514
513
519
518
509
509
510
518
511
515
521
514
510
504
500
508
511
511
504
507
502
505
513
515
511
512
515
513
511
510
508
512
511
519
511
495
491
504
532
532
527
536
530
521
511
504
496
492
492
482
514
530
520
515
514
519
513
515
510
509
519
506
493
487
495
497
511
518
510
525
531
524
519
506
504
507
511
504
508
519
517
508
504
500
508
509
507
510
511
511
520
521
508
510
508
498
497
511
503
505
507
497
496
504
509
528
539
527
515
530
544
526
499
484
484
497
507
512
508
509
496
515
532
533
533
524
516
503
502
500
472
452
466
494
493
477
467
499
567
627
630
600
582
551
516
508
516
508
496
493
494
479
452
443
451
475
480
452
449
455
492
520
535
514
453
434
467
483
507
568
627
696
655
608
613
575
564
527
507
474
467
490
489
462
408
420
470
492
513
481
481
512
508
478
497
565
616
596
540
507
543
545
515
508
483
468
469
433
440
473
478
477
528
585
588
536
527
518
467
399
446
467
467
484
550
614
690
723
658
570
432
362
447
451
380
382
482
631
635
523
476
494
517
559
610
553
543
502
474
446
432
507
531
498
463
484
496
531
536
512
476
514
508
481
484
515
494
390
387
463
545
536
598
674
730
659
541
527
521
500
468
457
408
448
441
470
512
465
511
510
514
552
582
515
422
366
434
556
574
526
527
594
654
593
501
497
507
507
497
519
479
430
489
513
553
570
619
646
604
563
543
488
459
483
474
393
349
376
457
451
394
384
433
482
489
524
640
698
679
591
555
569
588
547
483
494
450
433
483
533
499
460
414
420
412
430
487
527
600
635
689
704
605
473
482
473
481
416
398
519
592
569
449
460
568
612
624
570
499
475
486
439
432
429
441
407
437
451
408
433
464
511
621
673
711
753
707
601
460
489
555
525
521
498
486
440
412
423
383
353
381
438
463
392
345
438
571
682
782
762
631
587
560
498
476
513
525
484
562
588
550
494
438
416
433
430
473
440
403
418
432
428
448
471
501
480
485
611
783
817
772
720
552
476
445
426
411
413
432
430
426
443
438
419
486
537
515
495
464
486
585
657
583
523
591
606
560
516
516
521
525
497
461
448
436
387
353
392
493
639
655
597
554
592
597
570
568
518
467
456
446
427
358
326
365
462
511
572
573
656
733
686
611
566
563
549
486
457
437
409
444
464
423
398
471
467
461
459
500
536
565
563
565
593
583
557
552
564
531
489
321
267
344
412
482
594
697
765
780
666
571
519
503
497
491
471
454
448
454
459
470
467
460
444
433
424
375
324
271
287
402
550
627
665
867
1021
886
655
590
593
562
470
379
316
300
300
343
384
430
474
523
691
775
708
660
623
520
443
399
381
406
424
440
417
458
476
460
459
443
467
612
697
679
679
610
568
515
496
520
481
460
472
477
449
455
480
496
491
500
495
503
512
504
508
511
508
502
492
494
499
516
486
427
441
471
500
508
551
614
593
530
578
637
591
522
519
548
593
536
477
462
460
465
464
472
476
486
495
497
502
506
504
506
507
509
515
524
518
507
506
499
495
500
511
524
514
505
516
518
513
516
520
528
533
531
531
528
525
508
497
484
484
489
501
509
515
521
519
515
508
504
506
513
511
508
508
500
490
510
503
486
483
489
524
542
550
555
546
530
523
531
539
532
517
501
483
472
481
497
503
503
497
513
527
517
519
518
516
511
499
496
502
503
501
511
529
527
510
511
522
513
505
505
504
499
497
501
504
513
521
524
523
520
513
513
505
505
505
504
509
503
497
496
494
496
509
512
524
527
523
525
529
536
528
526
534
521
508
492
487
486
494
506
515
505
492
502
518
517
506
500
489
503
519
519
524
535
536
532
523
506
512
512
505
500
492
488
511
516
506
501
514
518
514
528
531
512
516
511
505
506
503
503
502
506
507
511
508
505
507
517
530
530
523
515
512
500
501
511
512
502
494
497
507
520
516
507
513
523
511
511
509
501
499
497
506
517
515
513
516
515
507
498
501
516
529
526
519
515
517
518
508
498
508
510
510
507
504
503
496
496
502
515
519
518
516
529
537
525
508
502
508
524
521
512
512
506
507
508
508
497
492
494
499
506
517
513
513
514
510
519
534
529
517
509
500
504
518
511
504
504
499
502
512
515
513
511
505
506
500
505
517
524
526
525
524
515
504
498
501
505
509
514
510
505
504
509
514
516
510
511
510
512
511
512
512
509
505
512
504
506
502
508
518
514
519
526
524
519
514
513
513
508
508
508
506
508
509
503
502
508
518
520
508
504
511
515
514
510
507
505
509
512
516
516
509
509
510
515
511
510
510
508
510
511
509
513
510
511
508
512
511
507
507
509
507
513
517
510
511
519
527
526
521
511
510
511
506
512
507
508
505
507
508
505
505
504
513
514
508
507
510
510
510
508
512
506
499
505
511
516
523
523
518
517
512
507
520
514
508
508
505
501
502
513
517
507
505
511
512
508
507
509
512
517
516
510
512
512
510
516
520
510
508
505
506
513
515
515
509
506
516
522
513
512
512
508
504
504
507
508
507
505
504
506
504
506
510
507
511
512
521
528
536
530
510
499
507
514
515
511
504
506
502
503
509
511
509
512
517
515
508
504
512
515
519
510
505
508
508
511
518
515
505
500
505
504
508
511
508
515
516
519
519
524
523
517
511
510
511
513
514
501
495
496
499
504
504
507
511
518
527
532
521
519
522
520
512
506
502
500
505
502
502
503
507
508
509
515
512
