# OpenSignals Text File Format. Version 1
# {"98:D3:71:FE:39:54": {"position": 0, "device": "bitalino_rev", "device name": "98:D3:71:FE:39:54", "device connection": "BTH98:D3:71:FE:39:54", "sampling rate": 1000, "resolution": [4, 1, 1, 1, 1, 10], "firmware version": 1282, "comments": "", "keywords": "", "mode": 0, "sync interval": 2, "date": "2025-10-19", "time": "11:41:11.665", "channels": [4], "sensor": ["EMGBITREV"], "label": ["A4"], "column": ["nSeq", "I1", "I2", "O1", "O2", "A4"], "special": [{}], "digital IO": [0, 0, 1, 1]}}
# EndOfHeader
0	0	0	0	0	510	
1	0	0	0	0	510	
2	0	0	0	0	509	
3	0	0	0	0	510	
4	0	0	0	0	510	
5	0	0	0	0	513	
6	0	0	0	0	514	
7	0	0	0	0	516	
8	0	0	0	0	515	
9	0	0	0	0	511	
10	0	0	0	0	510	
11	0	0	0	0	510	
12	0	0	0	0	508	
13	0	0	0	0	508	
14	0	0	0	0	508	
15	0	0	0	0	507	
0	0	0	0	0	510	
1	0	0	0	0	512	
2	0	0	0	0	511	
3	0	0	0	0	510	
4	0	0	0	0	510	
5	0	0	0	0	510	
6	0	0	0	0	510	
7	0	0	0	0	511	
8	0	0	0	0	507	
9	0	0	0	0	507	
10	0	0	0	0	507	
11	0	0	0	0	507	
12	0	0	0	0	510	
13	0	0	0	0	515	
14	0	0	0	0	518	
15	0	0	0	0	521	
0	0	0	0	0	515	
1	0	0	0	0	513	
2	0	0	0	0	512	
3	0	0	0	0	511	
4	0	0	0	0	512	
5	0	0	0	0	509	
6	0	0	0	0	507	
7	0	0	0	0	506	
8	0	0	0	0	509	
9	0	0	0	0	512	
10	0	0	0	0	514	
11	0	0	0	0	516	
12	0	0	0	0	515	
13	0	0	0	0	510	
14	0	0	0	0	511	
15	0	0	0	0	511	
0	0	0	0	0	510	
1	0	0	0	0	510	
2	0	0	0	0	509	
3	0	0	0	0	511	
4	0	0	0	0	512	
5	0	0	0	0	514	
6	0	0	0	0	510	
7	0	0	0	0	508	
8	0	0	0	0	508	
9	0	0	0	0	510	
10	0	0	0	0	512	
11	0	0	0	0	513	
12	0	0	0	0	513	
13	0	0	0	0	512	
14	0	0	0	0	508	
15	0	0	0	0	507	
0	0	0	0	0	510	
1	0	0	0	0	508	
2	0	0	0	0	510	
3	0	0	0	0	511	
4	0	0	0	0	508	
5	0	0	0	0	511	
6	0	0	0	0	512	
7	0	0	0	0	513	
8	0	0	0	0	516	
9	0	0	0	0	522	
10	0	0	0	0	518	
11	0	0	0	0	511	
12	0	0	0	0	510	
13	0	0	0	0	507	
14	0	0	0	0	510	
15	0	0	0	0	509	
0	0	0	0	0	512	
1	0	0	0	0	506	
2	0	0	0	0	506	
3	0	0	0	0	510	
4	0	0	0	0	510	
5	0	0	0	0	508	
6	0	0	0	0	511	
7	0	0	0	0	514	
8	0	0	0	0	512	
9	0	0	0	0	511	
10	0	0	0	0	511	
11	0	0	0	0	513	
12	0	0	0	0	512	
13	0	0	0	0	513	
14	0	0	0	0	511	
15	0	0	0	0	513	
0	0	0	0	0	512	
1	0	0	0	0	510	
2	0	0	0	0	511	
3	0	0	0	0	509	
4	0	0	0	0	512	
5	0	0	0	0	506	
6	0	0	0	0	502	
7	0	0	0	0	507	
8	0	0	0	0	508	
9	0	0	0	0	511	
10	0	0	0	0	515	
11	0	0	0	0	521	
12	0	0	0	0	519	
13	0	0	0	0	516	
14	0	0	0	0	513	
15	0	0	0	0	511	
0	0	0	0	0	512	
1	0	0	0	0	516	
2	0	0	0	0	518	
3	0	0	0	0	512	
4	0	0	0	0	509	
5	0	0	0	0	510	
6	0	0	0	0	508	
7	0	0	0	0	508	
8	0	0	0	0	506	
9	0	0	0	0	508	
10	0	0	0	0	508	
11	0	0	0	0	507	
12	0	0	0	0	508	
13	0	0	0	0	507	
14	0	0	0	0	511	
15	0	0	0	0	512	
0	0	0	0	0	515	
1	0	0	0	0	517	
2	0	0	0	0	516	
3	0	0	0	0	512	
4	0	0	0	0	510	
5	0	0	0	0	509	
6	0	0	0	0	511	
7	0	0	0	0	511	
8	0	0	0	0	511	
9	0	0	0	0	510	
10	0	0	0	0	509	
11	0	0	0	0	510	
12	0	0	0	0	510	
13	0	0	0	0	511	
14	0	0	0	0	512	
15	0	0	0	0	510	
0	0	0	0	0	507	
1	0	0	0	0	509	
2	0	0	0	0	511	
3	0	0	0	0	510	
4	0	0	0	0	511	
5	0	0	0	0	511	
6	0	0	0	0	511	
7	0	0	0	0	511	
8	0	0	0	0	511	
9	0	0	0	0	508	
10	0	0	0	0	511	
11	0	0	0	0	513	
12	0	0	0	0	517	
13	0	0	0	0	513	
14	0	0	0	0	509	
15	0	0	0	0	508	
0	0	0	0	0	510	
1	0	0	0	0	514	
2	0	0	0	0	511	
3	0	0	0	0	510	
4	0	0	0	0	512	
5	0	0	0	0	511	
6	0	0	0	0	510	
7	0	0	0	0	509	
8	0	0	0	0	511	
9	0	0	0	0	512	
10	0	0	0	0	511	
11	0	0	0	0	513	
12	0	0	0	0	513	
13	0	0	0	0	510	
14	0	0	0	0	509	
15	0	0	0	0	511	
0	0	0	0	0	510	
1	0	0	0	0	509	
2	0	0	0	0	509	
3	0	0	0	0	511	
4	0	0	0	0	517	
5	0	0	0	0	517	
6	0	0	0	0	513	
7	0	0	0	0	512	
8	0	0	0	0	509	
9	0	0	0	0	508	
10	0	0	0	0	508	
11	0	0	0	0	512	
12	0	0	0	0	512	
13	0	0	0	0	510	
14	0	0	0	0	510	
15	0	0	0	0	511	
0	0	0	0	0	509	
1	0	0	0	0	513	
2	0	0	0	0	511	
3	0	0	0	0	510	
4	0	0	0	0	511	
5	0	0	0	0	510	
6	0	0	0	0	510	
7	0	0	0	0	511	
8	0	0	0	0	512	
9	0	0	0	0	510	
10	0	0	0	0	508	
11	0	0	0	0	508	
12	0	0	0	0	515	
13	0	0	0	0	511	
14	0	0	0	0	507	
15	0	0	0	0	505	
0	0	0	0	0	513	
1	0	0	0	0	519	
2	0	0	0	0	521	
3	0	0	0	0	516	
4	0	0	0	0	510	
5	0	0	0	0	508	
6	0	0	0	0	509	
7	0	0	0	0	513	
8	0	0	0	0	508	
9	0	0	0	0	510	
10	0	0	0	0	512	
11	0	0	0	0	512	
12	0	0	0	0	508	
13	0	0	0	0	508	
14	0	0	0	0	505	
15	0	0	0	0	507	
0	0	0	0	0	508	
1	0	0	0	0	509	
2	0	0	0	0	507	
3	0	0	0	0	508	
4	0	0	0	0	511	
5	0	0	0	0	513	
6	0	0	0	0	515	
7	0	0	0	0	511	
8	0	0	0	0	512	
9	0	0	0	0	522	
10	0	0	0	0	518	
11	0	0	0	0	509	
12	0	0	0	0	505	
13	0	0	0	0	505	
14	0	0	0	0	509	
15	0	0	0	0	513	
0	0	0	0	0	518	
1	0	0	0	0	513	
2	0	0	0	0	511	
3	0	0	0	0	517	
4	0	0	0	0	512	
5	0	0	0	0	504	
6	0	0	0	0	509	
7	0	0	0	0	514	
8	0	0	0	0	509	
9	0	0	0	0	510	
10	0	0	0	0	509	
11	0	0	0	0	506	
12	0	0	0	0	511	
13	0	0	0	0	512	
14	0	0	0	0	512	
15	0	0	0	0	511	
0	0	0	0	0	509	
1	0	0	0	0	511	
2	0	0	0	0	508	
3	0	0	0	0	510	
4	0	0	0	0	511	
5	0	0	0	0	510	
6	0	0	0	0	511	
7	0	0	0	0	512	
8	0	0	0	0	511	
9	0	0	0	0	511	
10	0	0	0	0	513	
11	0	0	0	0	510	
12	0	0	0	0	508	
13	0	0	0	0	506	
14	0	0	0	0	510	
15	0	0	0	0	512	
0	0	0	0	0	517	
1	0	0	0	0	511	
2	0	0	0	0	511	
3	0	0	0	0	510	
4	0	0	0	0	512	
5	0	0	0	0	511	
6	0	0	0	0	508	
7	0	0	0	0	514	
8	0	0	0	0	519	
9	0	0	0	0	512	
10	0	0	0	0	511	
11	0	0	0	0	512	
12	0	0	0	0	508	
13	0	0	0	0	510	
14	0	0	0	0	508	
15	0	0	0	0	511	
0	0	0	0	0	511	
1	0	0	0	0	510	
2	0	0	0	0	510	
3	0	0	0	0	510	
4	0	0	0	0	505	
5	0	0	0	0	512	
6	0	0	0	0	516	
7	0	0	0	0	511	
8	0	0	0	0	508	
9	0	0	0	0	509	
10	0	0	0	0	508	
11	0	0	0	0	513	
12	0	0	0	0	510	
13	0	0	0	0	508	
14	0	0	0	0	511	
15	0	0	0	0	512	
0	0	0	0	0	508	
1	0	0	0	0	511	
2	0	0	0	0	511	
3	0	0	0	0	509	
4	0	0	0	0	511	
5	0	0	0	0	512	
6	0	0	0	0	515	
7	0	0	0	0	512	
8	0	0	0	0	510	
9	0	0	0	0	505	
10	0	0	0	0	503	
11	0	0	0	0	508	
12	0	0	0	0	517	
13	0	0	0	0	519	
14	0	0	0	0	522	
15	0	0	0	0	519	
0	0	0	0	0	514	
1	0	0	0	0	508	
2	0	0	0	0	507	
3	0	0	0	0	507	
4	0	0	0	0	511	
5	0	0	0	0	513	
6	0	0	0	0	510	
7	0	0	0	0	512	
8	0	0	0	0	507	
9	0	0	0	0	504	
10	0	0	0	0	508	
11	0	0	0	0	513	
12	0	0	0	0	518	
13	0	0	0	0	519	
14	0	0	0	0	514	
15	0	0	0	0	510	
0	0	0	0	0	507	
1	0	0	0	0	505	
2	0	0	0	0	503	
3	0	0	0	0	504	
4	0	0	0	0	508	
5	0	0	0	0	510	
6	0	0	0	0	515	
7	0	0	0	0	522	
8	0	0	0	0	518	
9	0	0	0	0	518	
10	0	0	0	0	512	
11	0	0	0	0	511	
12	0	0	0	0	511	
13	0	0	0	0	515	
14	0	0	0	0	514	
15	0	0	0	0	516	
0	0	0	0	0	511	
1	0	0	0	0	507	
2	0	0	0	0	510	
3	0	0	0	0	508	
4	0	0	0	0	508	
5	0	0	0	0	507	
6	0	0	0	0	512	
7	0	0	0	0	510	
8	0	0	0	0	510	
9	0	0	0	0	508	
10	0	0	0	0	507	
11	0	0	0	0	511	
12	0	0	0	0	512	
13	0	0	0	0	512	
14	0	0	0	0	516	
15	0	0	0	0	521	
0	0	0	0	0	513	
1	0	0	0	0	508	
2	0	0	0	0	507	
3	0	0	0	0	515	
4	0	0	0	0	523	
5	0	0	0	0	511	
6	0	0	0	0	505	
7	0	0	0	0	505	
8	0	0	0	0	510	
9	0	0	0	0	510	
10	0	0	0	0	508	
11	0	0	0	0	509	
12	0	0	0	0	511	
13	0	0	0	0	511	
14	0	0	0	0	512	
15	0	0	0	0	512	
0	0	0	0	0	511	
1	0	0	0	0	513	
2	0	0	0	0	512	
3	0	0	0	0	511	
4	0	0	0	0	512	
5	0	0	0	0	511	
6	0	0	0	0	509	
7	0	0	0	0	509	
8	0	0	0	0	511	
9	0	0	0	0	512	
10	0	0	0	0	511	
11	0	0	0	0	508	
12	0	0	0	0	509	
13	0	0	0	0	513	
14	0	0	0	0	510	
15	0	0	0	0	507	
0	0	0	0	0	508	
1	0	0	0	0	512	
2	0	0	0	0	516	
3	0	0	0	0	515	
4	0	0	0	0	511	
5	0	0	0	0	508	
6	0	0	0	0	507	
7	0	0	0	0	509	
8	0	0	0	0	508	
9	0	0	0	0	508	
10	0	0	0	0	511	
11	0	0	0	0	512	
12	0	0	0	0	509	
13	0	0	0	0	505	
14	0	0	0	0	505	
15	0	0	0	0	506	
0	0	0	0	0	513	
1	0	0	0	0	516	
2	0	0	0	0	512	
3	0	0	0	0	511	
4	0	0	0	0	510	
5	0	0	0	0	506	
6	0	0	0	0	504	
7	0	0	0	0	511	
8	0	0	0	0	518	
9	0	0	0	0	516	
10	0	0	0	0	513	
11	0	0	0	0	519	
12	0	0	0	0	515	
13	0	0	0	0	509	
14	0	0	0	0	505	
15	0	0	0	0	506	
0	0	0	0	0	511	
1	0	0	0	0	518	
2	0	0	0	0	524	
3	0	0	0	0	517	
4	0	0	0	0	517	
5	0	0	0	0	519	
6	0	0	0	0	524	
7	0	0	0	0	516	
8	0	0	0	0	510	
9	0	0	0	0	510	
10	0	0	0	0	513	
11	0	0	0	0	504	
12	0	0	0	0	505	
13	0	0	0	0	504	
14	0	0	0	0	504	
15	0	0	0	0	510	
0	0	0	0	0	510	
1	0	0	0	0	509	
2	0	0	0	0	509	
3	0	0	0	0	509	
4	0	0	0	0	515	
5	0	0	0	0	512	
6	0	0	0	0	509	
7	0	0	0	0	509	
8	0	0	0	0	510	
9	0	0	0	0	511	
10	0	0	0	0	510	
11	0	0	0	0	504	
12	0	0	0	0	502	
13	0	0	0	0	509	
14	0	0	0	0	511	
15	0	0	0	0	515	
0	0	0	0	0	510	
1	0	0	0	0	506	
2	0	0	0	0	500	
3	0	0	0	0	500	
4	0	0	0	0	510	
5	0	0	0	0	528	
6	0	0	0	0	523	
7	0	0	0	0	510	
8	0	0	0	0	509	
9	0	0	0	0	508	
10	0	0	0	0	515	
11	0	0	0	0	512	
12	0	0	0	0	509	
13	0	0	0	0	507	
14	0	0	0	0	510	
15	0	0	0	0	510	
0	0	0	0	0	510	
1	0	0	0	0	508	
2	0	0	0	0	509	
3	0	0	0	0	509	
4	0	0	0	0	507	
5	0	0	0	0	511	
6	0	0	0	0	510	
7	0	0	0	0	510	
8	0	0	0	0	511	
9	0	0	0	0	510	
10	0	0	0	0	511	
11	0	0	0	0	513	
12	0	0	0	0	514	
13	0	0	0	0	519	
14	0	0	0	0	511	
15	0	0	0	0	517	
0	0	0	0	0	513	
1	0	0	0	0	504	
2	0	0	0	0	506	
3	0	0	0	0	508	
4	0	0	0	0	508	
5	0	0	0	0	508	
6	0	0	0	0	509	
7	0	0	0	0	510	
8	0	0	0	0	511	
9	0	0	0	0	510	
10	0	0	0	0	509	
11	0	0	0	0	510	
12	0	0	0	0	511	
13	0	0	0	0	512	
14	0	0	0	0	509	
15	0	0	0	0	511	
0	0	0	0	0	510	
1	0	0	0	0	508	
2	0	0	0	0	508	
3	0	0	0	0	508	
4	0	0	0	0	508	
5	0	0	0	0	510	
6	0	0	0	0	513	
7	0	0	0	0	521	
8	0	0	0	0	523	
9	0	0	0	0	513	
10	0	0	0	0	505	
11	0	0	0	0	504	
12	0	0	0	0	505	
13	0	0	0	0	503	
14	0	0	0	0	503	
15	0	0	0	0	509	
0	0	0	0	0	518	
1	0	0	0	0	518	
2	0	0	0	0	519	
3	0	0	0	0	524	
4	0	0	0	0	519	
5	0	0	0	0	509	
6	0	0	0	0	508	
7	0	0	0	0	504	
8	0	0	0	0	508	
9	0	0	0	0	502	
10	0	0	0	0	506	
11	0	0	0	0	514	
12	0	0	0	0	513	
13	0	0	0	0	522	
14	0	0	0	0	521	
15	0	0	0	0	517	
0	0	0	0	0	512	
1	0	0	0	0	506	
2	0	0	0	0	504	
3	0	0	0	0	504	
4	0	0	0	0	512	
5	0	0	0	0	515	
6	0	0	0	0	513	
7	0	0	0	0	504	
8	0	0	0	0	505	
9	0	0	0	0	511	
10	0	0	0	0	511	
11	0	0	0	0	512	
12	0	0	0	0	511	
13	0	0	0	0	513	
14	0	0	0	0	510	
15	0	0	0	0	511	
0	0	0	0	0	510	
1	0	0	0	0	507	
2	0	0	0	0	510	
3	0	0	0	0	512	
4	0	0	0	0	515	
5	0	0	0	0	515	
6	0	0	0	0	511	
7	0	0	0	0	510	
8	0	0	0	0	508	
9	0	0	0	0	507	
10	0	0	0	0	514	
11	0	0	0	0	517	
12	0	0	0	0	520	
13	0	0	0	0	513	
14	0	0	0	0	507	
15	0	0	0	0	511	
0	0	0	0	0	509	
1	0	0	0	0	507	
2	0	0	0	0	509	
3	0	0	0	0	510	
4	0	0	0	0	508	
5	0	0	0	0	509	
6	0	0	0	0	508	
7	0	0	0	0	511	
8	0	0	0	0	511	
9	0	0	0	0	512	
10	0	0	0	0	512	
11	0	0	0	0	511	
12	0	0	0	0	513	
13	0	0	0	0	513	
14	0	0	0	0	511	
15	0	0	0	0	510	
0	0	0	0	0	509	
1	0	0	0	0	519	
2	0	0	0	0	512	
3	0	0	0	0	509	
4	0	0	0	0	510	
5	0	0	0	0	508	
6	0	0	0	0	505	
7	0	0	0	0	507	
8	0	0	0	0	513	
9	0	0	0	0	512	
10	0	0	0	0	510	
11	0	0	0	0	511	
12	0	0	0	0	510	
13	0	0	0	0	511	
14	0	0	0	0	512	
15	0	0	0	0	510	
0	0	0	0	0	511	
1	0	0	0	0	509	
2	0	0	0	0	511	
3	0	0	0	0	514	
4	0	0	0	0	513	
5	0	0	0	0	512	
6	0	0	0	0	515	
7	0	0	0	0	511	
8	0	0	0	0	511	
9	0	0	0	0	510	
10	0	0	0	0	508	
11	0	0	0	0	504	
12	0	0	0	0	504	
13	0	0	0	0	507	
14	0	0	0	0	509	
15	0	0	0	0	512	
0	0	0	0	0	516	
1	0	0	0	0	523	
2	0	0	0	0	523	
3	0	0	0	0	520	
4	0	0	0	0	516	
5	0	0	0	0	512	
6	0	0	0	0	516	
7	0	0	0	0	510	
8	0	0	0	0	501	
9	0	0	0	0	503	
10	0	0	0	0	505	
11	0	0	0	0	514	
12	0	0	0	0	516	
13	0	0	0	0	511	
14	0	0	0	0	510	
15	0	0	0	0	510	
0	0	0	0	0	511	
1	0	0	0	0	508	
2	0	0	0	0	507	
3	0	0	0	0	508	
4	0	0	0	0	509	
5	0	0	0	0	512	
6	0	0	0	0	511	
7	0	0	0	0	512	
8	0	0	0	0	509	
9	0	0	0	0	512	
10	0	0	0	0	510	
11	0	0	0	0	507	
12	0	0	0	0	507	
13	0	0	0	0	513	
14	0	0	0	0	509	
15	0	0	0	0	507	
0	0	0	0	0	508	
1	0	0	0	0	510	
2	0	0	0	0	510	
3	0	0	0	0	513	
4	0	0	0	0	513	
5	0	0	0	0	510	
6	0	0	0	0	507	
7	0	0	0	0	510	
8	0	0	0	0	511	
9	0	0	0	0	510	
10	0	0	0	0	508	
11	0	0	0	0	510	
12	0	0	0	0	512	
13	0	0	0	0	514	
14	0	0	0	0	512	
15	0	0	0	0	505	
0	0	0	0	0	507	
1	0	0	0	0	508	
2	0	0	0	0	507	
3	0	0	0	0	513	
4	0	0	0	0	523	
5	0	0	0	0	523	
6	0	0	0	0	519	
7	0	0	0	0	516	
8	0	0	0	0	510	
9	0	0	0	0	504	
10	0	0	0	0	504	
11	0	0	0	0	506	
12	0	0	0	0	512	
13	0	0	0	0	514	
14	0	0	0	0	511	
15	0	0	0	0	512	
0	0	0	0	0	509	
1	0	0	0	0	515	
2	0	0	0	0	515	
3	0	0	0	0	511	
4	0	0	0	0	509	
5	0	0	0	0	512	
6	0	0	0	0	511	
7	0	0	0	0	511	
8	0	0	0	0	510	
9	0	0	0	0	508	
10	0	0	0	0	509	
11	0	0	0	0	515	
12	0	0	0	0	510	
13	0	0	0	0	508	
14	0	0	0	0	508	
15	0	0	0	0	509	
0	0	0	0	0	510	
1	0	0	0	0	509	
2	0	0	0	0	508	
3	0	0	0	0	508	
4	0	0	0	0	512	
5	0	0	0	0	509	
6	0	0	0	0	515	
7	0	0	0	0	519	
8	0	0	0	0	516	
9	0	0	0	0	512	
10	0	0	0	0	511	
11	0	0	0	0	513	
12	0	0	0	0	514	
13	0	0	0	0	515	
14	0	0	0	0	507	
15	0	0	0	0	503	
0	0	0	0	0	512	
1	0	0	0	0	519	
2	0	0	0	0	511	
3	0	0	0	0	508	
4	0	0	0	0	507	
5	0	0	0	0	513	
6	0	0	0	0	515	
7	0	0	0	0	512	
8	0	0	0	0	510	
9	0	0	0	0	511	
10	0	0	0	0	511	
11	0	0	0	0	515	
12	0	0	0	0	515	
13	0	0	0	0	514	
14	0	0	0	0	513	
15	0	0	0	0	507	
0	0	0	0	0	507	
1	0	0	0	0	509	
2	0	0	0	0	510	
3	0	0	0	0	511	
4	0	0	0	0	508	
5	0	0	0	0	500	
6	0	0	0	0	510	
7	0	0	0	0	516	
8	0	0	0	0	512	
9	0	0	0	0	511	
10	0	0	0	0	511	
11	0	0	0	0	509	
12	0	0	0	0	511	
13	0	0	0	0	510	
14	0	0	0	0	511	
15	0	0	0	0	510	
0	0	0	0	0	511	
1	0	0	0	0	515	
2	0	0	0	0	517	
3	0	0	0	0	512	
4	0	0	0	0	507	
5	0	0	0	0	514	
6	0	0	0	0	512	
7	0	0	0	0	510	
8	0	0	0	0	510	
9	0	0	0	0	512	
10	0	0	0	0	514	
11	0	0	0	0	512	
12	0	0	0	0	506	
13	0	0	0	0	509	
14	0	0	0	0	510	
15	0	0	0	0	513	
0	0	0	0	0	514	
1	0	0	0	0	516	
2	0	0	0	0	512	
3	0	0	0	0	508	
4	0	0	0	0	510	
5	0	0	0	0	509	
6	0	0	0	0	507	
7	0	0	0	0	506	
8	0	0	0	0	506	
9	0	0	0	0	509	
10	0	0	0	0	510	
11	0	0	0	0	512	
12	0	0	0	0	513	
13	0	0	0	0	515	
14	0	0	0	0	510	
15	0	0	0	0	510	
0	0	0	0	0	514	
1	0	0	0	0	512	
2	0	0	0	0	511	
3	0	0	0	0	510	
4	0	0	0	0	518	
5	0	0	0	0	520	
6	0	0	0	0	514	
7	0	0	0	0	507	
8	0	0	0	0	514	
9	0	0	0	0	514	
10	0	0	0	0	511	
11	0	0	0	0	509	
12	0	0	0	0	508	
13	0	0	0	0	508	
14	0	0	0	0	511	
15	0	0	0	0	505	
0	0	0	0	0	508	
1	0	0	0	0	510	
2	0	0	0	0	511	
3	0	0	0	0	511	
4	0	0	0	0	518	
5	0	0	0	0	504	
6	0	0	0	0	504	
7	0	0	0	0	510	
8	0	0	0	0	511	
9	0	0	0	0	511	
10	0	0	0	0	508	
11	0	0	0	0	510	
12	0	0	0	0	519	
13	0	0	0	0	515	
14	0	0	0	0	508	
15	0	0	0	0	511	
0	0	0	0	0	513	
1	0	0	0	0	514	
2	0	0	0	0	511	
3	0	0	0	0	507	
4	0	0	0	0	508	
5	0	0	0	0	518	
6	0	0	0	0	509	
7	0	0	0	0	502	
8	0	0	0	0	509	
9	0	0	0	0	521	
10	0	0	0	0	510	
11	0	0	0	0	512	
12	0	0	0	0	511	
13	0	0	0	0	508	
14	0	0	0	0	511	
15	0	0	0	0	509	
0	0	0	0	0	511	
1	0	0	0	0	512	
2	0	0	0	0	510	
3	0	0	0	0	512	
4	0	0	0	0	510	
5	0	0	0	0	511	
6	0	0	0	0	509	
7	0	0	0	0	515	
8	0	0	0	0	514	
9	0	0	0	0	511	
10	0	0	0	0	511	
11	0	0	0	0	511	
12	0	0	0	0	511	
13	0	0	0	0	508	
14	0	0	0	0	516	
15	0	0	0	0	514	
0	0	0	0	0	511	
1	0	0	0	0	512	
2	0	0	0	0	514	
3	0	0	0	0	510	
4	0	0	0	0	508	
5	0	0	0	0	510	
6	0	0	0	0	510	
7	0	0	0	0	512	
8	0	0	0	0	507	
9	0	0	0	0	511	
10	0	0	0	0	511	
11	0	0	0	0	511	
12	0	0	0	0	511	
13	0	0	0	0	512	
14	0	0	0	0	514	
15	0	0	0	0	503	
0	0	0	0	0	511	
1	0	0	0	0	514	
2	0	0	0	0	512	
3	0	0	0	0	508	
4	0	0	0	0	511	
5	0	0	0	0	510	
6	0	0	0	0	510	
7	0	0	0	0	509	
8	0	0	0	0	510	
9	0	0	0	0	509	
10	0	0	0	0	512	
11	0	0	0	0	511	
12	0	0	0	0	504	
13	0	0	0	0	513	
14	0	0	0	0	519	
15	0	0	0	0	515	
0	0	0	0	0	512	
1	0	0	0	0	507	
2	0	0	0	0	512	
3	0	0	0	0	512	
4	0	0	0	0	506	
5	0	0	0	0	505	
6	0	0	0	0	509	
7	0	0	0	0	510	
8	0	0	0	0	513	
9	0	0	0	0	518	
10	0	0	0	0	511	
11	0	0	0	0	509	
12	0	0	0	0	513	
13	0	0	0	0	511	
14	0	0	0	0	510	
15	0	0	0	0	508	
0	0	0	0	0	509	
1	0	0	0	0	513	
2	0	0	0	0	515	
3	0	0	0	0	511	
4	0	0	0	0	508	
5	0	0	0	0	507	
6	0	0	0	0	511	
7	0	0	0	0	514	
8	0	0	0	0	508	
9	0	0	0	0	504	
10	0	0	0	0	502	
11	0	0	0	0	502	
12	0	0	0	0	499	
13	0	0	0	0	506	
14	0	0	0	0	520	
15	0	0	0	0	520	
0	0	0	0	0	527	
1	0	0	0	0	529	
2	0	0	0	0	519	
3	0	0	0	0	520	
4	0	0	0	0	513	
5	0	0	0	0	508	
6	0	0	0	0	505	
7	0	0	0	0	507	
8	0	0	0	0	507	
9	0	0	0	0	508	
10	0	0	0	0	507	
11	0	0	0	0	503	
12	0	0	0	0	501	
13	0	0	0	0	497	
14	0	0	0	0	511	
15	0	0	0	0	511	
0	0	0	0	0	511	
1	0	0	0	0	529	
2	0	0	0	0	532	
3	0	0	0	0	527	
4	0	0	0	0	518	
5	0	0	0	0	507	
6	0	0	0	0	508	
7	0	0	0	0	505	
8	0	0	0	0	506	
9	0	0	0	0	504	
10	0	0	0	0	503	
11	0	0	0	0	504	
12	0	0	0	0	511	
13	0	0	0	0	508	
14	0	0	0	0	510	
15	0	0	0	0	512	
0	0	0	0	0	514	
1	0	0	0	0	509	
2	0	0	0	0	512	
3	0	0	0	0	514	
4	0	0	0	0	510	
5	0	0	0	0	514	
6	0	0	0	0	514	
7	0	0	0	0	511	
8	0	0	0	0	508	
9	0	0	0	0	504	
10	0	0	0	0	514	
11	0	0	0	0	515	
12	0	0	0	0	512	
13	0	0	0	0	509	
14	0	0	0	0	512	
15	0	0	0	0	511	
0	0	0	0	0	513	
1	0	0	0	0	513	
2	0	0	0	0	513	
3	0	0	0	0	506	
4	0	0	0	0	504	
5	0	0	0	0	510	
6	0	0	0	0	515	
7	0	0	0	0	510	
8	0	0	0	0	509	
9	0	0	0	0	507	
10	0	0	0	0	508	
11	0	0	0	0	517	
12	0	0	0	0	509	
13	0	0	0	0	510	
14	0	0	0	0	512	
15	0	0	0	0	510	
0	0	0	0	0	510	
1	0	0	0	0	510	
2	0	0	0	0	510	
3	0	0	0	0	519	
4	0	0	0	0	513	
5	0	0	0	0	505	
6	0	0	0	0	509	
7	0	0	0	0	509	
8	0	0	0	0	509	
9	0	0	0	0	512	
10	0	0	0	0	512	
11	0	0	0	0	512	
12	0	0	0	0	512	
13	0	0	0	0	510	
14	0	0	0	0	510	
15	0	0	0	0	515	
0	0	0	0	0	513	
1	0	0	0	0	516	
2	0	0	0	0	511	
3	0	0	0	0	508	
4	0	0	0	0	507	
5	0	0	0	0	502	
6	0	0	0	0	496	
7	0	0	0	0	487	
8	0	0	0	0	507	
9	0	0	0	0	516	
10	0	0	0	0	529	
11	0	0	0	0	546	
12	0	0	0	0	538	
13	0	0	0	0	524	
14	0	0	0	0	520	
15	0	0	0	0	508	
0	0	0	0	0	505	
1	0	0	0	0	509	
2	0	0	0	0	511	
3	0	0	0	0	511	
4	0	0	0	0	508	
5	0	0	0	0	507	
6	0	0	0	0	504	
7	0	0	0	0	505	
8	0	0	0	0	507	
9	0	0	0	0	503	
10	0	0	0	0	505	
11	0	0	0	0	506	
12	0	0	0	0	509	
13	0	0	0	0	510	
14	0	0	0	0	512	
15	0	0	0	0	508	
0	0	0	0	0	508	
1	0	0	0	0	511	
2	0	0	0	0	510	
3	0	0	0	0	511	
4	0	0	0	0	508	
5	0	0	0	0	510	
6	0	0	0	0	512	
7	0	0	0	0	515	
8	0	0	0	0	512	
9	0	0	0	0	516	
10	0	0	0	0	515	
11	0	0	0	0	507	
12	0	0	0	0	511	
13	0	0	0	0	517	
14	0	0	0	0	508	
15	0	0	0	0	508	
0	0	0	0	0	510	
1	0	0	0	0	510	
2	0	0	0	0	508	
3	0	0	0	0	514	
4	0	0	0	0	510	
5	0	0	0	0	510	
6	0	0	0	0	510	
7	0	0	0	0	511	
8	0	0	0	0	511	
9	0	0	0	0	513	
10	0	0	0	0	517	
11	0	0	0	0	512	
12	0	0	0	0	508	
13	0	0	0	0	508	
14	0	0	0	0	514	
15	0	0	0	0	511	
0	0	0	0	0	511	
1	0	0	0	0	511	
2	0	0	0	0	510	
3	0	0	0	0	518	
4	0	0	0	0	511	
5	0	0	0	0	505	
6	0	0	0	0	510	
7	0	0	0	0	511	
8	0	0	0	0	509	
9	0	0	0	0	512	
10	0	0	0	0	514	
11	0	0	0	0	513	
12	0	0	0	0	510	
13	0	0	0	0	512	
14	0	0	0	0	511	
15	0	0	0	0	512	
0	0	0	0	0	508	
1	0	0	0	0	513	
2	0	0	0	0	516	
3	0	0	0	0	512	
4	0	0	0	0	513	
5	0	0	0	0	504	
6	0	0	0	0	504	
7	0	0	0	0	502	
8	0	0	0	0	504	
9	0	0	0	0	510	
10	0	0	0	0	511	
11	0	0	0	0	516	
12	0	0	0	0	520	
13	0	0	0	0	520	
14	0	0	0	0	520	
15	0	0	0	0	515	
0	0	0	0	0	509	
1	0	0	0	0	507	
2	0	0	0	0	508	
3	0	0	0	0	508	
4	0	0	0	0	506	
5	0	0	0	0	509	
6	0	0	0	0	508	
7	0	0	0	0	511	
8	0	0	0	0	504	
9	0	0	0	0	505	
10	0	0	0	0	510	
11	0	0	0	0	509	
12	0	0	0	0	508	
13	0	0	0	0	504	
14	0	0	0	0	505	
15	0	0	0	0	509	
0	0	0	0	0	510	
1	0	0	0	0	518	
2	0	0	0	0	521	
3	0	0	0	0	528	
4	0	0	0	0	524	
5	0	0	0	0	518	
6	0	0	0	0	516	
7	0	0	0	0	511	
8	0	0	0	0	503	
9	0	0	0	0	504	
10	0	0	0	0	508	
11	0	0	0	0	508	
12	0	0	0	0	508	
13	0	0	0	0	512	
14	0	0	0	0	513	
15	0	0	0	0	511	
0	0	0	0	0	511	
1	0	0	0	0	508	
2	0	0	0	0	510	
3	0	0	0	0	507	
4	0	0	0	0	507	
5	0	0	0	0	508	
6	0	0	0	0	510	
7	0	0	0	0	512	
8	0	0	0	0	518	
9	0	0	0	0	521	
10	0	0	0	0	519	
11	0	0	0	0	508	
12	0	0	0	0	508	
13	0	0	0	0	508	
14	0	0	0	0	511	
15	0	0	0	0	512	
0	0	0	0	0	514	
1	0	0	0	0	508	
2	0	0	0	0	494	
3	0	0	0	0	501	
4	0	0	0	0	517	
5	0	0	0	0	514	
6	0	0	0	0	511	
7	0	0	0	0	515	
8	0	0	0	0	515	
9	0	0	0	0	520	
10	0	0	0	0	516	
11	0	0	0	0	512	
12	0	0	0	0	509	
13	0	0	0	0	507	
14	0	0	0	0	506	
15	0	0	0	0	508	
0	0	0	0	0	508	
1	0	0	0	0	512	
2	0	0	0	0	515	
3	0	0	0	0	517	
4	0	0	0	0	508	
5	0	0	0	0	511	
6	0	0	0	0	515	
7	0	0	0	0	511	
8	0	0	0	0	508	
9	0	0	0	0	506	
10	0	0	0	0	508	
11	0	0	0	0	507	
12	0	0	0	0	513	
13	0	0	0	0	516	
14	0	0	0	0	507	
15	0	0	0	0	507	
0	0	0	0	0	510	
1	0	0	0	0	505	
2	0	0	0	0	511	
3	0	0	0	0	510	
4	0	0	0	0	508	
5	0	0	0	0	513	
6	0	0	0	0	519	
7	0	0	0	0	521	
8	0	0	0	0	517	
9	0	0	0	0	513	
10	0	0	0	0	511	
11	0	0	0	0	509	
12	0	0	0	0	512	
13	0	0	0	0	511	
14	0	0	0	0	512	
15	0	0	0	0	507	
0	0	0	0	0	505	
1	0	0	0	0	508	
2	0	0	0	0	511	
3	0	0	0	0	509	
4	0	0	0	0	509	
5	0	0	0	0	511	
6	0	0	0	0	518	
7	0	0	0	0	515	
8	0	0	0	0	512	
9	0	0	0	0	519	
10	0	0	0	0	511	
11	0	0	0	0	503	
12	0	0	0	0	503	
13	0	0	0	0	513	
14	0	0	0	0	511	
15	0	0	0	0	510	
0	0	0	0	0	511	
1	0	0	0	0	517	
2	0	0	0	0	504	
3	0	0	0	0	503	
4	0	0	0	0	516	
5	0	0	0	0	521	
6	0	0	0	0	515	
7	0	0	0	0	515	
8	0	0	0	0	511	
9	0	0	0	0	511	
10	0	0	0	0	508	
11	0	0	0	0	507	
12	0	0	0	0	513	
13	0	0	0	0	507	
14	0	0	0	0	511	
15	0	0	0	0	510	
0	0	0	0	0	511	
1	0	0	0	0	513	
2	0	0	0	0	509	
3	0	0	0	0	509	
4	0	0	0	0	508	
5	0	0	0	0	512	
6	0	0	0	0	513	
7	0	0	0	0	507	
8	0	0	0	0	513	
9	0	0	0	0	507	
10	0	0	0	0	522	
11	0	0	0	0	516	
12	0	0	0	0	507	
13	0	0	0	0	504	
14	0	0	0	0	502	
15	0	0	0	0	504	
0	0	0	0	0	504	
1	0	0	0	0	501	
2	0	0	0	0	502	
3	0	0	0	0	510	
4	0	0	0	0	518	
5	0	0	0	0	519	
6	0	0	0	0	520	
7	0	0	0	0	517	
8	0	0	0	0	510	
9	0	0	0	0	512	
10	0	0	0	0	514	
11	0	0	0	0	515	
12	0	0	0	0	511	
13	0	0	0	0	507	
14	0	0	0	0	509	
15	0	0	0	0	506	
0	0	0	0	0	512	
1	0	0	0	0	512	
2	0	0	0	0	511	
3	0	0	0	0	512	
4	0	0	0	0	511	
5	0	0	0	0	511	
6	0	0	0	0	513	
7	0	0	0	0	517	
8	0	0	0	0	514	
9	0	0	0	0	504	
10	0	0	0	0	508	
11	0	0	0	0	512	
12	0	0	0	0	513	
13	0	0	0	0	511	
14	0	0	0	0	512	
15	0	0	0	0	516	
0	0	0	0	0	519	
1	0	0	0	0	513	
2	0	0	0	0	509	
3	0	0	0	0	513	
4	0	0	0	0	512	
5	0	0	0	0	514	
6	0	0	0	0	508	
7	0	0	0	0	515	
8	0	0	0	0	509	
9	0	0	0	0	509	
10	0	0	0	0	510	
11	0	0	0	0	508	
12	0	0	0	0	509	
13	0	0	0	0	511	
14	0	0	0	0	512	
15	0	0	0	0	511	
0	0	0	0	0	510	
1	0	0	0	0	512	
2	0	0	0	0	514	
3	0	0	0	0	504	
4	0	0	0	0	500	
5	0	0	0	0	501	
6	0	0	0	0	506	
7	0	0	0	0	510	
8	0	0	0	0	516	
9	0	0	0	0	529	
10	0	0	0	0	534	
11	0	0	0	0	521	
12	0	0	0	0	512	
13	0	0	0	0	508	
14	0	0	0	0	505	
15	0	0	0	0	508	
0	0	0	0	0	508	
1	0	0	0	0	505	
2	0	0	0	0	506	
3	0	0	0	0	507	
4	0	0	0	0	510	
5	0	0	0	0	509	
6	0	0	0	0	508	
7	0	0	0	0	508	
8	0	0	0	0	508	
9	0	0	0	0	510	
10	0	0	0	0	508	
11	0	0	0	0	512	
12	0	0	0	0	512	
13	0	0	0	0	512	
14	0	0	0	0	512	
15	0	0	0	0	510	
0	0	0	0	0	508	
1	0	0	0	0	511	
2	0	0	0	0	510	
3	0	0	0	0	512	
4	0	0	0	0	511	
5	0	0	0	0	509	
6	0	0	0	0	510	
7	0	0	0	0	511	
8	0	0	0	0	512	
9	0	0	0	0	515	
10	0	0	0	0	520	
11	0	0	0	0	520	
12	0	0	0	0	512	
13	0	0	0	0	511	
14	0	0	0	0	513	
15	0	0	0	0	515	
0	0	0	0	0	510	
1	0	0	0	0	508	
2	0	0	0	0	507	
3	0	0	0	0	505	
4	0	0	0	0	506	
5	0	0	0	0	508	
6	0	0	0	0	507	
7	0	0	0	0	505	
8	0	0	0	0	513	
9	0	0	0	0	513	
10	0	0	0	0	513	
11	0	0	0	0	515	
12	0	0	0	0	511	
13	0	0	0	0	514	
14	0	0	0	0	516	
15	0	0	0	0	515	
0	0	0	0	0	511	
1	0	0	0	0	509	
2	0	0	0	0	505	
3	0	0	0	0	509	
4	0	0	0	0	516	
5	0	0	0	0	515	
6	0	0	0	0	510	
7	0	0	0	0	509	
8	0	0	0	0	508	
9	0	0	0	0	511	
10	0	0	0	0	509	
11	0	0	0	0	510	
12	0	0	0	0	512	
13	0	0	0	0	509	
14	0	0	0	0	508	
15	0	0	0	0	508	
0	0	0	0	0	510	
1	0	0	0	0	514	
2	0	0	0	0	510	
3	0	0	0	0	509	
4	0	0	0	0	510	
5	0	0	0	0	513	
6	0	0	0	0	513	
7	0	0	0	0	513	
8	0	0	0	0	513	
9	0	0	0	0	511	
10	0	0	0	0	510	
11	0	0	0	0	512	
12	0	0	0	0	509	
13	0	0	0	0	508	
14	0	0	0	0	507	
15	0	0	0	0	509	
0	0	0	0	0	511	
1	0	0	0	0	511	
2	0	0	0	0	515	
3	0	0	0	0	519	
4	0	0	0	0	519	
5	0	0	0	0	518	
6	0	0	0	0	508	
7	0	0	0	0	502	
8	0	0	0	0	508	
9	0	0	0	0	514	
10	0	0	0	0	512	
11	0	0	0	0	511	
12	0	0	0	0	511	
13	0	0	0	0	513	
14	0	0	0	0	518	
15	0	0	0	0	516	
0	0	0	0	0	513	
1	0	0	0	0	510	
2	0	0	0	0	508	
3	0	0	0	0	506	
4	0	0	0	0	507	
5	0	0	0	0	506	
6	0	0	0	0	509	
7	0	0	0	0	508	
8	0	0	0	0	512	
9	0	0	0	0	509	
10	0	0	0	0	510	
11	0	0	0	0	512	
12	0	0	0	0	510	
13	0	0	0	0	512	
14	0	0	0	0	511	
15	0	0	0	0	511	
0	0	0	0	0	511	
1	0	0	0	0	512	
2	0	0	0	0	511	
3	0	0	0	0	510	
4	0	0	0	0	510	
5	0	0	0	0	510	
6	0	0	0	0	514	
7	0	0	0	0	511	
8	0	0	0	0	509	
9	0	0	0	0	507	
10	0	0	0	0	508	
11	0	0	0	0	512	
12	0	0	0	0	515	
13	0	0	0	0	514	
14	0	0	0	0	515	
15	0	0	0	0	518	
0	0	0	0	0	510	
1	0	0	0	0	510	
2	0	0	0	0	512	
3	0	0	0	0	510	
4	0	0	0	0	511	
5	0	0	0	0	509	
6	0	0	0	0	511	
7	0	0	0	0	513	
8	0	0	0	0	514	
9	0	0	0	0	513	
10	0	0	0	0	508	
11	0	0	0	0	513	
12	0	0	0	0	511	
13	0	0	0	0	507	
14	0	0	0	0	506	
15	0	0	0	0	509	
0	0	0	0	0	503	
1	0	0	0	0	505	
2	0	0	0	0	508	
3	0	0	0	0	512	
4	0	0	0	0	515	
5	0	0	0	0	515	
6	0	0	0	0	517	
7	0	0	0	0	516	
8	0	0	0	0	513	
9	0	0	0	0	512	
10	0	0	0	0	514	
11	0	0	0	0	513	
12	0	0	0	0	510	
13	0	0	0	0	507	
14	0	0	0	0	507	
15	0	0	0	0	508	
0	0	0	0	0	508	
1	0	0	0	0	510	
2	0	0	0	0	511	
3	0	0	0	0	512	
4	0	0	0	0	514	
5	0	0	0	0	512	
6	0	0	0	0	509	
7	0	0	0	0	510	
8	0	0	0	0	515	
9	0	0	0	0	507	
10	0	0	0	0	508	
11	0	0	0	0	512	
12	0	0	0	0	509	
13	0	0	0	0	508	
14	0	0	0	0	507	
15	0	0	0	0	508	
0	0	0	0	0	514	
1	0	0	0	0	520	
2	0	0	0	0	524	
3	0	0	0	0	526	
4	0	0	0	0	511	
5	0	0	0	0	511	
6	0	0	0	0	508	
7	0	0	0	0	508	
8	0	0	0	0	507	
9	0	0	0	0	508	
10	0	0	0	0	515	
11	0	0	0	0	511	
12	0	0	0	0	506	
13	0	0	0	0	503	
14	0	0	0	0	509	
15	0	0	0	0	513	
0	0	0	0	0	511	
1	0	0	0	0	512	
2	0	0	0	0	511	
3	0	0	0	0	511	
4	0	0	0	0	511	
5	0	0	0	0	508	
6	0	0	0	0	507	
7	0	0	0	0	515	
8	0	0	0	0	515	
9	0	0	0	0	512	
10	0	0	0	0	511	
11	0	0	0	0	510	
12	0	0	0	0	510	
13	0	0	0	0	510	
14	0	0	0	0	512	
15	0	0	0	0	512	
0	0	0	0	0	508	
1	0	0	0	0	507	
2	0	0	0	0	510	
3	0	0	0	0	511	
4	0	0	0	0	511	
5	0	0	0	0	510	
6	0	0	0	0	514	
7	0	0	0	0	521	
8	0	0	0	0	509	
9	0	0	0	0	508	
10	0	0	0	0	508	
11	0	0	0	0	506	
12	0	0	0	0	510	
13	0	0	0	0	513	
14	0	0	0	0	513	
15	0	0	0	0	515	
0	0	0	0	0	513	
1	0	0	0	0	513	
2	0	0	0	0	509	
3	0	0	0	0	508	
4	0	0	0	0	511	
5	0	0	0	0	515	
6	0	0	0	0	508	
7	0	0	0	0	507	
8	0	0	0	0	507	
9	0	0	0	0	506	
10	0	0	0	0	511	
11	0	0	0	0	510	
12	0	0	0	0	513	
13	0	0	0	0	514	
14	0	0	0	0	516	
15	0	0	0	0	519	
0	0	0	0	0	516	
1	0	0	0	0	512	
2	0	0	0	0	510	
3	0	0	0	0	509	
4	0	0	0	0	510	
5	0	0	0	0	509	
6	0	0	0	0	508	
7	0	0	0	0	509	
8	0	0	0	0	510	
9	0	0	0	0	511	
10	0	0	0	0	508	
11	0	0	0	0	508	
12	0	0	0	0	508	
13	0	0	0	0	511	
14	0	0	0	0	511	
15	0	0	0	0	515	
0	0	0	0	0	519	
1	0	0	0	0	523	
2	0	0	0	0	513	
3	0	0	0	0	509	
4	0	0	0	0	508	
5	0	0	0	0	507	
6	0	0	0	0	508	
7	0	0	0	0	508	
8	0	0	0	0	509	
9	0	0	0	0	508	
10	0	0	0	0	511	
11	0	0	0	0	507	
12	0	0	0	0	508	
13	0	0	0	0	520	
14	0	0	0	0	517	
15	0	0	0	0	519	
0	0	0	0	0	518	
1	0	0	0	0	510	
2	0	0	0	0	511	
3	0	0	0	0	507	
4	0	0	0	0	505	
5	0	0	0	0	505	
6	0	0	0	0	506	
7	0	0	0	0	507	
8	0	0	0	0	508	
9	0	0	0	0	510	
10	0	0	0	0	512	
11	0	0	0	0	515	
12	0	0	0	0	513	
13	0	0	0	0	511	
14	0	0	0	0	512	
15	0	0	0	0	510	
0	0	0	0	0	513	
1	0	0	0	0	513	
2	0	0	0	0	511	
3	0	0	0	0	511	
4	0	0	0	0	510	
5	0	0	0	0	507	
6	0	0	0	0	505	
7	0	0	0	0	500	
8	0	0	0	0	502	
9	0	0	0	0	504	
10	0	0	0	0	511	
11	0	0	0	0	519	
12	0	0	0	0	523	
13	0	0	0	0	527	
14	0	0	0	0	527	
15	0	0	0	0	520	
0	0	0	0	0	514	
1	0	0	0	0	508	
2	0	0	0	0	510	
3	0	0	0	0	508	
4	0	0	0	0	504	
5	0	0	0	0	505	
6	0	0	0	0	500	
7	0	0	0	0	512	
8	0	0	0	0	522	
9	0	0	0	0	510	
10	0	0	0	0	499	
11	0	0	0	0	507	
12	0	0	0	0	509	
13	0	0	0	0	508	
14	0	0	0	0	508	
15	0	0	0	0	510	
0	0	0	0	0	510	
1	0	0	0	0	512	
2	0	0	0	0	511	
3	0	0	0	0	511	
4	0	0	0	0	508	
5	0	0	0	0	510	
6	0	0	0	0	517	
7	0	0	0	0	515	
8	0	0	0	0	511	
9	0	0	0	0	509	
10	0	0	0	0	512	
11	0	0	0	0	511	
12	0	0	0	0	507	
13	0	0	0	0	512	
14	0	0	0	0	512	
15	0	0	0	0	507	
0	0	0	0	0	510	
1	0	0	0	0	516	
2	0	0	0	0	513	
3	0	0	0	0	511	
4	0	0	0	0	513	
5	0	0	0	0	508	
6	0	0	0	0	510	
7	0	0	0	0	508	
8	0	0	0	0	508	
9	0	0	0	0	507	
10	0	0	0	0	508	
11	0	0	0	0	513	
12	0	0	0	0	513	
13	0	0	0	0	512	
14	0	0	0	0	513	
15	0	0	0	0	513	
0	0	0	0	0	512	
1	0	0	0	0	513	
2	0	0	0	0	508	
3	0	0	0	0	508	
4	0	0	0	0	514	
5	0	0	0	0	508	
6	0	0	0	0	509	
7	0	0	0	0	510	
8	0	0	0	0	511	
9	0	0	0	0	510	
10	0	0	0	0	512	
11	0	0	0	0	512	
12	0	0	0	0	511	
13	0	0	0	0	507	
14	0	0	0	0	516	
15	0	0	0	0	511	
0	0	0	0	0	513	
1	0	0	0	0	510	
2	0	0	0	0	510	
3	0	0	0	0	511	
4	0	0	0	0	509	
5	0	0	0	0	510	
6	0	0	0	0	512	
7	0	0	0	0	512	
8	0	0	0	0	513	
9	0	0	0	0	511	
10	0	0	0	0	510	
11	0	0	0	0	509	
12	0	0	0	0	506	
13	0	0	0	0	515	
14	0	0	0	0	514	
15	0	0	0	0	512	
0	0	0	0	0	511	
1	0	0	0	0	510	
2	0	0	0	0	513	
3	0	0	0	0	512	
4	0	0	0	0	507	
5	0	0	0	0	511	
6	0	0	0	0	511	
7	0	0	0	0	512	
8	0	0	0	0	512	
9	0	0	0	0	510	
10	0	0	0	0	512	
11	0	0	0	0	511	
12	0	0	0	0	511	
13	0	0	0	0	512	
14	0	0	0	0	512	
15	0	0	0	0	511	
0	0	0	0	0	511	
1	0	0	0	0	510	
2	0	0	0	0	510	
3	0	0	0	0	511	
4	0	0	0	0	511	
5	0	0	0	0	510	
6	0	0	0	0	512	
7	0	0	0	0	511	
8	0	0	0	0	510	
9	0	0	0	0	510	
10	0	0	0	0	512	
11	0	0	0	0	512	
12	0	0	0	0	511	
13	0	0	0	0	512	
14	0	0	0	0	517	
15	0	0	0	0	515	
0	0	0	0	0	510	
1	0	0	0	0	510	
2	0	0	0	0	508	
3	0	0	0	0	509	
4	0	0	0	0	510	
5	0	0	0	0	510	
6	0	0	0	0	509	
7	0	0	0	0	508	
8	0	0	0	0	506	
9	0	0	0	0	512	
10	0	0	0	0	511	
11	0	0	0	0	515	
12	0	0	0	0	518	
13	0	0	0	0	501	
14	0	0	0	0	508	
15	0	0	0	0	506	
0	0	0	0	0	513	
1	0	0	0	0	512	
2	0	0	0	0	524	
3	0	0	0	0	517	
4	0	0	0	0	506	
5	0	0	0	0	505	
6	0	0	0	0	512	
7	0	0	0	0	513	
8	0	0	0	0	510	
9	0	0	0	0	508	
10	0	0	0	0	505	
11	0	0	0	0	508	
12	0	0	0	0	510	
13	0	0	0	0	508	
14	0	0	0	0	510	
15	0	0	0	0	511	
0	0	0	0	0	512	
1	0	0	0	0	511	
2	0	0	0	0	511	
3	0	0	0	0	514	
4	0	0	0	0	512	
5	0	0	0	0	512	
6	0	0	0	0	511	
7	0	0	0	0	509	
8	0	0	0	0	512	
9	0	0	0	0	511	
10	0	0	0	0	511	
11	0	0	0	0	513	
12	0	0	0	0	513	
13	0	0	0	0	513	
14	0	0	0	0	512	
15	0	0	0	0	510	
0	0	0	0	0	515	
1	0	0	0	0	512	
2	0	0	0	0	511	
3	0	0	0	0	511	
4	0	0	0	0	511	
5	0	0	0	0	511	
6	0	0	0	0	510	
7	0	0	0	0	509	
8	0	0	0	0	511	
9	0	0	0	0	512	
10	0	0	0	0	513	
11	0	0	0	0	513	
12	0	0	0	0	511	
13	0	0	0	0	512	
14	0	0	0	0	510	
15	0	0	0	0	510	
0	0	0	0	0	508	
1	0	0	0	0	509	
2	0	0	0	0	514	
3	0	0	0	0	509	
4	0	0	0	0	507	
5	0	0	0	0	511	
6	0	0	0	0	513	
7	0	0	0	0	511	
8	0	0	0	0	510	
9	0	0	0	0	515	
10	0	0	0	0	516	
11	0	0	0	0	509	
12	0	0	0	0	512	
13	0	0	0	0	508	
14	0	0	0	0	508	
15	0	0	0	0	511	
0	0	0	0	0	500	
1	0	0	0	0	512	
2	0	0	0	0	517	
3	0	0	0	0	511	
4	0	0	0	0	511	
5	0	0	0	0	512	
6	0	0	0	0	511	
7	0	0	0	0	511	
8	0	0	0	0	510	
9	0	0	0	0	507	
10	0	0	0	0	508	
11	0	0	0	0	511	
12	0	0	0	0	510	
13	0	0	0	0	511	
14	0	0	0	0	515	
15	0	0	0	0	511	
0	0	0	0	0	508	
1	0	0	0	0	508	
2	0	0	0	0	510	
3	0	0	0	0	511	
4	0	0	0	0	512	
5	0	0	0	0	509	
6	0	0	0	0	509	
7	0	0	0	0	511	
8	0	0	0	0	512	
9	0	0	0	0	513	
10	0	0	0	0	513	
11	0	0	0	0	508	
12	0	0	0	0	508	
13	0	0	0	0	510	
14	0	0	0	0	511	
15	0	0	0	0	510	
0	0	0	0	0	513	
1	0	0	0	0	517	
2	0	0	0	0	519	
3	0	0	0	0	510	
4	0	0	0	0	503	
5	0	0	0	0	499	
6	0	0	0	0	500	
7	0	0	0	0	499	
8	0	0	0	0	506	
9	0	0	0	0	514	
10	0	0	0	0	513	
11	0	0	0	0	520	
12	0	0	0	0	521	
13	0	0	0	0	516	
14	0	0	0	0	517	
15	0	0	0	0	520	
0	0	0	0	0	520	
1	0	0	0	0	509	
2	0	0	0	0	508	
3	0	0	0	0	516	
4	0	0	0	0	512	
5	0	0	0	0	500	
6	0	0	0	0	509	
7	0	0	0	0	521	
8	0	0	0	0	526	
9	0	0	0	0	519	
10	0	0	0	0	517	
11	0	0	0	0	503	
12	0	0	0	0	505	
13	0	0	0	0	502	
14	0	0	0	0	503	
15	0	0	0	0	504	
0	0	0	0	0	511	
1	0	0	0	0	508	
2	0	0	0	0	508	
3	0	0	0	0	512	
4	0	0	0	0	511	
5	0	0	0	0	504	
6	0	0	0	0	507	
7	0	0	0	0	507	
8	0	0	0	0	508	
9	0	0	0	0	515	
10	0	0	0	0	522	
11	0	0	0	0	523	
12	0	0	0	0	516	
13	0	0	0	0	515	
14	0	0	0	0	513	
15	0	0	0	0	509	
0	0	0	0	0	505	
1	0	0	0	0	506	
2	0	0	0	0	499	
3	0	0	0	0	496	
4	0	0	0	0	504	
5	0	0	0	0	509	
6	0	0	0	0	515	
7	0	0	0	0	518	
8	0	0	0	0	522	
9	0	0	0	0	522	
10	0	0	0	0	521	
11	0	0	0	0	516	
12	0	0	0	0	512	
13	0	0	0	0	509	
14	0	0	0	0	505	
15	0	0	0	0	506	
0	0	0	0	0	508	
1	0	0	0	0	512	
2	0	0	0	0	512	
3	0	0	0	0	510	
4	0	0	0	0	508	
5	0	0	0	0	506	
6	0	0	0	0	507	
7	0	0	0	0	509	
8	0	0	0	0	508	
9	0	0	0	0	506	
10	0	0	0	0	510	
11	0	0	0	0	510	
12	0	0	0	0	512	
13	0	0	0	0	511	
14	0	0	0	0	512	
15	0	0	0	0	516	
0	0	0	0	0	515	
1	0	0	0	0	512	
2	0	0	0	0	510	
3	0	0	0	0	504	
4	0	0	0	0	505	
5	0	0	0	0	510	
6	0	0	0	0	514	
7	0	0	0	0	509	
8	0	0	0	0	508	
9	0	0	0	0	509	
10	0	0	0	0	509	
11	0	0	0	0	507	
12	0	0	0	0	507	
13	0	0	0	0	513	
14	0	0	0	0	520	
15	0	0	0	0	524	
0	0	0	0	0	524	
1	0	0	0	0	521	
2	0	0	0	0	513	
3	0	0	0	0	507	
4	0	0	0	0	509	
5	0	0	0	0	511	
6	0	0	0	0	512	
7	0	0	0	0	510	
8	0	0	0	0	513	
9	0	0	0	0	512	
10	0	0	0	0	512	
11	0	0	0	0	513	
12	0	0	0	0	511	
13	0	0	0	0	509	
14	0	0	0	0	504	
15	0	0	0	0	506	
0	0	0	0	0	513	
1	0	0	0	0	513	
2	0	0	0	0	510	
3	0	0	0	0	508	
4	0	0	0	0	508	
5	0	0	0	0	502	
6	0	0	0	0	505	
7	0	0	0	0	506	
8	0	0	0	0	500	
9	0	0	0	0	502	
10	0	0	0	0	508	
11	0	0	0	0	510	
12	0	0	0	0	516	
13	0	0	0	0	510	
14	0	0	0	0	506	
15	0	0	0	0	506	
0	0	0	0	0	512	
1	0	0	0	0	520	
2	0	0	0	0	529	
3	0	0	0	0	532	
4	0	0	0	0	524	
5	0	0	0	0	517	
6	0	0	0	0	515	
7	0	0	0	0	506	
8	0	0	0	0	508	
9	0	0	0	0	511	
10	0	0	0	0	509	
11	0	0	0	0	501	
12	0	0	0	0	499	
13	0	0	0	0	502	
14	0	0	0	0	519	
15	0	0	0	0	517	
0	0	0	0	0	508	
1	0	0	0	0	515	
2	0	0	0	0	514	
3	0	0	0	0	509	
4	0	0	0	0	510	
5	0	0	0	0	511	
6	0	0	0	0	513	
7	0	0	0	0	520	
8	0	0	0	0	523	
9	0	0	0	0	515	
10	0	0	0	0	504	
11	0	0	0	0	501	
12	0	0	0	0	498	
13	0	0	0	0	503	
14	0	0	0	0	510	
15	0	0	0	0	511	
0	0	0	0	0	501	
1	0	0	0	0	499	
2	0	0	0	0	517	
3	0	0	0	0	526	
4	0	0	0	0	525	
5	0	0	0	0	524	
6	0	0	0	0	512	
7	0	0	0	0	511	
8	0	0	0	0	523	
9	0	0	0	0	519	
10	0	0	0	0	518	
11	0	0	0	0	513	
12	0	0	0	0	509	
13	0	0	0	0	508	
14	0	0	0	0	503	
15	0	0	0	0	503	
0	0	0	0	0	505	
1	0	0	0	0	506	
2	0	0	0	0	508	
3	0	0	0	0	509	
4	0	0	0	0	507	
5	0	0	0	0	510	
6	0	0	0	0	508	
7	0	0	0	0	507	
8	0	0	0	0	508	
9	0	0	0	0	508	
10	0	0	0	0	508	
11	0	0	0	0	509	
12	0	0	0	0	510	
13	0	0	0	0	508	
14	0	0	0	0	508	
15	0	0	0	0	510	
0	0	0	0	0	511	
1	0	0	0	0	510	
2	0	0	0	0	511	
3	0	0	0	0	511	
4	0	0	0	0	511	
5	0	0	0	0	509	
6	0	0	0	0	508	
7	0	0	0	0	510	
8	0	0	0	0	508	
9	0	0	0	0	511	
10	0	0	0	0	514	
11	0	0	0	0	511	
12	0	0	0	0	513	
13	0	0	0	0	514	
14	0	0	0	0	513	
15	0	0	0	0	512	
0	0	0	0	0	512	
1	0	0	0	0	513	
2	0	0	0	0	511	
3	0	0	0	0	513	
4	0	0	0	0	512	
5	0	0	0	0	512	
6	0	0	0	0	510	
7	0	0	0	0	508	
8	0	0	0	0	511	
9	0	0	0	0	508	
10	0	0	0	0	508	
11	0	0	0	0	510	
12	0	0	0	0	512	
13	0	0	0	0	511	
14	0	0	0	0	508	
15	0	0	0	0	512	
0	0	0	0	0	512	
1	0	0	0	0	511	
2	0	0	0	0	508	
3	0	0	0	0	507	
4	0	0	0	0	506	
5	0	0	0	0	507	
6	0	0	0	0	512	
7	0	0	0	0	516	
8	0	0	0	0	516	
9	0	0	0	0	512	
10	0	0	0	0	513	
11	0	0	0	0	525	
12	0	0	0	0	524	
13	0	0	0	0	519	
14	0	0	0	0	516	
15	0	0	0	0	518	
0	0	0	0	0	512	
1	0	0	0	0	504	
2	0	0	0	0	504	
3	0	0	0	0	508	
4	0	0	0	0	510	
5	0	0	0	0	508	
6	0	0	0	0	508	
7	0	0	0	0	513	
8	0	0	0	0	512	
9	0	0	0	0	506	
10	0	0	0	0	509	
11	0	0	0	0	509	
12	0	0	0	0	515	
13	0	0	0	0	514	
14	0	0	0	0	515	
15	0	0	0	0	512	
0	0	0	0	0	506	
1	0	0	0	0	504	
2	0	0	0	0	510	
3	0	0	0	0	513	
4	0	0	0	0	511	
5	0	0	0	0	515	
6	0	0	0	0	512	
7	0	0	0	0	510	
8	0	0	0	0	508	
9	0	0	0	0	510	
10	0	0	0	0	509	
11	0	0	0	0	509	
12	0	0	0	0	510	
13	0	0	0	0	510	
14	0	0	0	0	508	
15	0	0	0	0	507	
0	0	0	0	0	520	
1	0	0	0	0	516	
2	0	0	0	0	507	
3	0	0	0	0	507	
4	0	0	0	0	510	
5	0	0	0	0	512	
6	0	0	0	0	511	
7	0	0	0	0	512	
8	0	0	0	0	513	
9	0	0	0	0	508	
10	0	0	0	0	507	
11	0	0	0	0	510	
12	0	0	0	0	514	
13	0	0	0	0	515	
14	0	0	0	0	512	
15	0	0	0	0	515	
0	0	0	0	0	509	
1	0	0	0	0	506	
2	0	0	0	0	510	
3	0	0	0	0	514	
4	0	0	0	0	510	
5	0	0	0	0	509	
6	0	0	0	0	515	
7	0	0	0	0	517	
8	0	0	0	0	511	
9	0	0	0	0	509	
10	0	0	0	0	511	
11	0	0	0	0	513	
12	0	0	0	0	511	
13	0	0	0	0	509	
14	0	0	0	0	510	
15	0	0	0	0	511	
0	0	0	0	0	512	
1	0	0	0	0	511	
2	0	0	0	0	508	
3	0	0	0	0	505	
4	0	0	0	0	508	
5	0	0	0	0	509	
6	0	0	0	0	510	
7	0	0	0	0	512	
8	0	0	0	0	516	
9	0	0	0	0	520	
10	0	0	0	0	519	
11	0	0	0	0	510	
12	0	0	0	0	507	
13	0	0	0	0	508	
14	0	0	0	0	509	
15	0	0	0	0	509	
0	0	0	0	0	509	
1	0	0	0	0	510	
2	0	0	0	0	510	
3	0	0	0	0	513	
4	0	0	0	0	512	
5	0	0	0	0	512	
6	0	0	0	0	512	
7	0	0	0	0	509	
8	0	0	0	0	508	
9	0	0	0	0	510	
10	0	0	0	0	511	
11	0	0	0	0	511	
12	0	0	0	0	510	
13	0	0	0	0	508	
14	0	0	0	0	508	
15	0	0	0	0	509	
0	0	0	0	0	508	
1	0	0	0	0	516	
2	0	0	0	0	511	
3	0	0	0	0	504	
4	0	0	0	0	504	
5	0	0	0	0	506	
6	0	0	0	0	512	
7	0	0	0	0	522	
8	0	0	0	0	537	
9	0	0	0	0	531	
10	0	0	0	0	518	
11	0	0	0	0	507	
12	0	0	0	0	506	
13	0	0	0	0	505	
14	0	0	0	0	509	
15	0	0	0	0	512	
0	0	0	0	0	516	
1	0	0	0	0	514	
2	0	0	0	0	511	
3	0	0	0	0	507	
4	0	0	0	0	505	
5	0	0	0	0	504	
6	0	0	0	0	504	
7	0	0	0	0	505	
8	0	0	0	0	509	
9	0	0	0	0	509	
10	0	0	0	0	510	
11	0	0	0	0	505	
12	0	0	0	0	512	
13	0	0	0	0	520	
14	0	0	0	0	510	
15	0	0	0	0	506	
0	0	0	0	0	513	
1	0	0	0	0	513	
2	0	0	0	0	513	
3	0	0	0	0	510	
4	0	0	0	0	506	
5	0	0	0	0	504	
6	0	0	0	0	514	
7	0	0	0	0	513	
8	0	0	0	0	513	
9	0	0	0	0	510	
10	0	0	0	0	511	
11	0	0	0	0	510	
12	0	0	0	0	511	
13	0	0	0	0	512	
14	0	0	0	0	512	
15	0	0	0	0	510	
0	0	0	0	0	510	
1	0	0	0	0	511	
2	0	0	0	0	512	
3	0	0	0	0	513	
4	0	0	0	0	512	
5	0	0	0	0	509	
6	0	0	0	0	508	
7	0	0	0	0	516	
8	0	0	0	0	515	
9	0	0	0	0	510	
10	0	0	0	0	508	
11	0	0	0	0	510	
12	0	0	0	0	507	
13	0	0	0	0	508	
14	0	0	0	0	511	
15	0	0	0	0	510	
0	0	0	0	0	510	
1	0	0	0	0	509	
2	0	0	0	0	511	
3	0	0	0	0	510	
4	0	0	0	0	514	
5	0	0	0	0	517	
6	0	0	0	0	520	
7	0	0	0	0	516	
8	0	0	0	0	513	
9	0	0	0	0	512	
10	0	0	0	0	508	
11	0	0	0	0	505	
12	0	0	0	0	507	
13	0	0	0	0	511	
14	0	0	0	0	508	
15	0	0	0	0	508	
0	0	0	0	0	510	
1	0	0	0	0	511	
2	0	0	0	0	512	
3	0	0	0	0	509	
4	0	0	0	0	505	
5	0	0	0	0	505	
6	0	0	0	0	507	
7	0	0	0	0	506	
8	0	0	0	0	510	
9	0	0	0	0	513	
10	0	0	0	0	517	
11	0	0	0	0	519	
12	0	0	0	0	513	
13	0	0	0	0	512	
14	0	0	0	0	516	
15	0	0	0	0	514	
0	0	0	0	0	509	
1	0	0	0	0	514	
2	0	0	0	0	515	
3	0	0	0	0	511	
4	0	0	0	0	505	
5	0	0	0	0	508	
6	0	0	0	0	512	
7	0	0	0	0	510	
8	0	0	0	0	510	
9	0	0	0	0	512	
10	0	0	0	0	511	
11	0	0	0	0	513	
12	0	0	0	0	507	
13	0	0	0	0	509	
14	0	0	0	0	512	
15	0	0	0	0	513	
0	0	0	0	0	511	
1	0	0	0	0	508	
2	0	0	0	0	510	
3	0	0	0	0	510	
4	0	0	0	0	511	
5	0	0	0	0	510	
6	0	0	0	0	512	
7	0	0	0	0	511	
8	0	0	0	0	505	
9	0	0	0	0	508	
10	0	0	0	0	505	
11	0	0	0	0	510	
12	0	0	0	0	513	
13	0	0	0	0	512	
14	0	0	0	0	511	
15	0	0	0	0	510	
0	0	0	0	0	515	
1	0	0	0	0	513	
2	0	0	0	0	509	
3	0	0	0	0	510	
4	0	0	0	0	512	
5	0	0	0	0	514	
6	0	0	0	0	513	
7	0	0	0	0	516	
8	0	0	0	0	516	
9	0	0	0	0	514	
10	0	0	0	0	506	
11	0	0	0	0	502	
12	0	0	0	0	502	
13	0	0	0	0	501	
14	0	0	0	0	503	
15	0	0	0	0	507	
0	0	0	0	0	508	
1	0	0	0	0	511	
2	0	0	0	0	515	
3	0	0	0	0	519	
4	0	0	0	0	525	
5	0	0	0	0	523	
6	0	0	0	0	527	
7	0	0	0	0	528	
8	0	0	0	0	524	
9	0	0	0	0	515	
10	0	0	0	0	512	
11	0	0	0	0	511	
12	0	0	0	0	507	
13	0	0	0	0	506	
14	0	0	0	0	503	
15	0	0	0	0	502	
0	0	0	0	0	507	
1	0	0	0	0	508	
2	0	0	0	0	506	
3	0	0	0	0	504	
4	0	0	0	0	503	
5	0	0	0	0	502	
6	0	0	0	0	507	
7	0	0	0	0	508	
8	0	0	0	0	507	
9	0	0	0	0	508	
10	0	0	0	0	509	
11	0	0	0	0	507	
12	0	0	0	0	511	
13	0	0	0	0	514	
14	0	0	0	0	520	
15	0	0	0	0	523	
0	0	0	0	0	519	
1	0	0	0	0	518	
2	0	0	0	0	515	
3	0	0	0	0	513	
4	0	0	0	0	509	
5	0	0	0	0	509	
6	0	0	0	0	508	
7	0	0	0	0	508	
8	0	0	0	0	510	
9	0	0	0	0	510	
10	0	0	0	0	508	
11	0	0	0	0	504	
12	0	0	0	0	506	
13	0	0	0	0	505	
14	0	0	0	0	507	
15	0	0	0	0	508	
0	0	0	0	0	510	
1	0	0	0	0	508	
2	0	0	0	0	504	
3	0	0	0	0	505	
4	0	0	0	0	508	
5	0	0	0	0	513	
6	0	0	0	0	517	
7	0	0	0	0	516	
8	0	0	0	0	519	
9	0	0	0	0	524	
10	0	0	0	0	520	
11	0	0	0	0	515	
12	0	0	0	0	513	
13	0	0	0	0	516	
14	0	0	0	0	521	
15	0	0	0	0	519	
0	0	0	0	0	509	
1	0	0	0	0	503	
2	0	0	0	0	506	
3	0	0	0	0	503	
4	0	0	0	0	501	
5	0	0	0	0	504	
6	0	0	0	0	504	
7	0	0	0	0	502	
8	0	0	0	0	509	
9	0	0	0	0	511	
10	0	0	0	0	519	
11	0	0	0	0	511	
12	0	0	0	0	509	
13	0	0	0	0	513	
14	0	0	0	0	511	
15	0	0	0	0	515	
0	0	0	0	0	514	
1	0	0	0	0	513	
2	0	0	0	0	518	
3	0	0	0	0	512	
4	0	0	0	0	509	
5	0	0	0	0	515	
6	0	0	0	0	517	
7	0	0	0	0	515	
8	0	0	0	0	519	
9	0	0	0	0	519	
10	0	0	0	0	516	
11	0	0	0	0	519	
12	0	0	0	0	507	
13	0	0	0	0	508	
14	0	0	0	0	503	
15	0	0	0	0	497	
0	0	0	0	0	510	
1	0	0	0	0	515	
2	0	0	0	0	503	
3	0	0	0	0	498	
4	0	0	0	0	499	
5	0	0	0	0	504	
6	0	0	0	0	511	
7	0	0	0	0	509	
8	0	0	0	0	515	
9	0	0	0	0	525	
10	0	0	0	0	519	
11	0	0	0	0	512	
12	0	0	0	0	518	
13	0	0	0	0	504	
14	0	0	0	0	506	
15	0	0	0	0	508	
0	0	0	0	0	505	
1	0	0	0	0	506	
2	0	0	0	0	512	
3	0	0	0	0	512	
4	0	0	0	0	509	
5	0	0	0	0	503	
6	0	0	0	0	501	
7	0	0	0	0	500	
8	0	0	0	0	497	
9	0	0	0	0	497	
10	0	0	0	0	504	
11	0	0	0	0	511	
12	0	0	0	0	511	
13	0	0	0	0	522	
14	0	0	0	0	540	
15	0	0	0	0	543	
0	0	0	0	0	538	
1	0	0	0	0	547	
2	0	0	0	0	536	
3	0	0	0	0	516	
4	0	0	0	0	489	
5	0	0	0	0	480	
6	0	0	0	0	493	
7	0	0	0	0	495	
8	0	0	0	0	498	
9	0	0	0	0	504	
10	0	0	0	0	499	
11	0	0	0	0	491	
12	0	0	0	0	473	
13	0	0	0	0	470	
14	0	0	0	0	485	
15	0	0	0	0	507	
0	0	0	0	0	527	
1	0	0	0	0	550	
2	0	0	0	0	568	
3	0	0	0	0	558	
4	0	0	0	0	543	
5	0	0	0	0	527	
6	0	0	0	0	529	
7	0	0	0	0	511	
8	0	0	0	0	503	
9	0	0	0	0	494	
10	0	0	0	0	492	
11	0	0	0	0	505	
12	0	0	0	0	504	
13	0	0	0	0	494	
14	0	0	0	0	513	
15	0	0	0	0	517	
0	0	0	0	0	497	
1	0	0	0	0	499	
2	0	0	0	0	495	
3	0	0	0	0	486	
4	0	0	0	0	490	
5	0	0	0	0	521	
6	0	0	0	0	524	
7	0	0	0	0	519	
8	0	0	0	0	553	
9	0	0	0	0	549	
10	0	0	0	0	548	
11	0	0	0	0	565	
12	0	0	0	0	543	
13	0	0	0	0	527	
14	0	0	0	0	509	
15	0	0	0	0	497	
0	0	0	0	0	486	
1	0	0	0	0	473	
2	0	0	0	0	476	
3	0	0	0	0	484	
4	0	0	0	0	494	
5	0	0	0	0	498	
6	0	0	0	0	490	
7	0	0	0	0	474	
8	0	0	0	0	475	
9	0	0	0	0	543	
10	0	0	0	0	547	
11	0	0	0	0	524	
12	0	0	0	0	520	
13	0	0	0	0	512	
14	0	0	0	0	493	
15	0	0	0	0	480	
0	0	0	0	0	452	
1	0	0	0	0	458	
2	0	0	0	0	511	
3	0	0	0	0	557	
4	0	0	0	0	572	
5	0	0	0	0	535	
6	0	0	0	0	541	
7	0	0	0	0	557	
8	0	0	0	0	536	
9	0	0	0	0	499	
10	0	0	0	0	539	
11	0	0	0	0	521	
12	0	0	0	0	455	
13	0	0	0	0	457	
14	0	0	0	0	436	
15	0	0	0	0	444	
0	0	0	0	0	470	
1	0	0	0	0	533	
2	0	0	0	0	531	
3	0	0	0	0	537	
4	0	0	0	0	535	
5	0	0	0	0	512	
6	0	0	0	0	510	
7	0	0	0	0	467	
8	0	0	0	0	412	
9	0	0	0	0	433	
10	0	0	0	0	460	
11	0	0	0	0	520	
12	0	0	0	0	556	
13	0	0	0	0	581	
14	0	0	0	0	615	
15	0	0	0	0	667	
0	0	0	0	0	663	
1	0	0	0	0	565	
2	0	0	0	0	499	
3	0	0	0	0	487	
4	0	0	0	0	482	
5	0	0	0	0	493	
6	0	0	0	0	467	
7	0	0	0	0	488	
8	0	0	0	0	523	
9	0	0	0	0	522	
10	0	0	0	0	458	
11	0	0	0	0	460	
12	0	0	0	0	465	
13	0	0	0	0	421	
14	0	0	0	0	489	
15	0	0	0	0	455	
0	0	0	0	0	393	
1	0	0	0	0	423	
2	0	0	0	0	467	
3	0	0	0	0	563	
4	0	0	0	0	615	
5	0	0	0	0	575	
6	0	0	0	0	679	
7	0	0	0	0	862	
8	0	0	0	0	862	
9	0	0	0	0	683	
10	0	0	0	0	528	
11	0	0	0	0	406	
12	0	0	0	0	414	
13	0	0	0	0	376	
14	0	0	0	0	387	
15	0	0	0	0	474	
0	0	0	0	0	451	
1	0	0	0	0	382	
2	0	0	0	0	425	
3	0	0	0	0	472	
4	0	0	0	0	463	
5	0	0	0	0	446	
6	0	0	0	0	548	
7	0	0	0	0	488	
8	0	0	0	0	463	
9	0	0	0	0	473	
10	0	0	0	0	501	
11	0	0	0	0	492	
12	0	0	0	0	501	
13	0	0	0	0	606	
14	0	0	0	0	580	
15	0	0	0	0	543	
0	0	0	0	0	533	
1	0	0	0	0	565	
2	0	0	0	0	551	
3	0	0	0	0	451	
4	0	0	0	0	441	
5	0	0	0	0	455	
6	0	0	0	0	468	
7	0	0	0	0	459	
8	0	0	0	0	471	
9	0	0	0	0	493	
10	0	0	0	0	516	
11	0	0	0	0	546	
12	0	0	0	0	540	
13	0	0	0	0	473	
14	0	0	0	0	527	
15	0	0	0	0	578	
0	0	0	0	0	553	
1	0	0	0	0	572	
2	0	0	0	0	594	
3	0	0	0	0	600	
4	0	0	0	0	545	
5	0	0	0	0	469	
6	0	0	0	0	444	
7	0	0	0	0	478	
8	0	0	0	0	526	
9	0	0	0	0	608	
10	0	0	0	0	576	
11	0	0	0	0	478	
12	0	0	0	0	465	
13	0	0	0	0	499	
14	0	0	0	0	494	
15	0	0	0	0	489	
0	0	0	0	0	515	
1	0	0	0	0	413	
2	0	0	0	0	403	
3	0	0	0	0	407	
4	0	0	0	0	423	
5	0	0	0	0	465	
6	0	0	0	0	452	
7	0	0	0	0	446	
8	0	0	0	0	509	
9	0	0	0	0	613	
10	0	0	0	0	707	
11	0	0	0	0	647	
12	0	0	0	0	608	
13	0	0	0	0	484	
14	0	0	0	0	493	
15	0	0	0	0	608	
0	0	0	0	0	630	
1	0	0	0	0	552	
2	0	0	0	0	489	
3	0	0	0	0	452	
4	0	0	0	0	387	
5	0	0	0	0	404	
6	0	0	0	0	477	
7	0	0	0	0	556	
8	0	0	0	0	543	
9	0	0	0	0	381	
10	0	0	0	0	427	
11	0	0	0	0	537	
12	0	0	0	0	601	
13	0	0	0	0	614	
14	0	0	0	0	575	
15	0	0	0	0	480	
0	0	0	0	0	467	
1	0	0	0	0	526	
2	0	0	0	0	679	
3	0	0	0	0	599	
4	0	0	0	0	514	
5	0	0	0	0	524	
6	0	0	0	0	487	
7	0	0	0	0	487	
8	0	0	0	0	468	
9	0	0	0	0	442	
10	0	0	0	0	427	
11	0	0	0	0	463	
12	0	0	0	0	425	
13	0	0	0	0	390	
14	0	0	0	0	373	
15	0	0	0	0	417	
0	0	0	0	0	504	
1	0	0	0	0	481	
2	0	0	0	0	445	
3	0	0	0	0	519	
4	0	0	0	0	605	
5	0	0	0	0	718	
6	0	0	0	0	796	
7	0	0	0	0	680	
8	0	0	0	0	600	
9	0	0	0	0	510	
10	0	0	0	0	473	
11	0	0	0	0	486	
12	0	0	0	0	441	
13	0	0	0	0	419	
14	0	0	0	0	482	
15	0	0	0	0	495	
0	0	0	0	0	542	
1	0	0	0	0	496	
2	0	0	0	0	442	
3	0	0	0	0	455	
4	0	0	0	0	442	
5	0	0	0	0	443	
6	0	0	0	0	435	
7	0	0	0	0	452	
8	0	0	0	0	500	
9	0	0	0	0	502	
10	0	0	0	0	487	
11	0	0	0	0	556	
12	0	0	0	0	614	
13	0	0	0	0	706	
14	0	0	0	0	592	
15	0	0	0	0	475	
0	0	0	0	0	495	
1	0	0	0	0	615	
2	0	0	0	0	511	
3	0	0	0	0	388	
4	0	0	0	0	490	
5	0	0	0	0	673	
6	0	0	0	0	625	
7	0	0	0	0	506	
8	0	0	0	0	436	
9	0	0	0	0	479	
10	0	0	0	0	473	
11	0	0	0	0	423	
12	0	0	0	0	451	
13	0	0	0	0	446	
14	0	0	0	0	414	
15	0	0	0	0	465	
0	0	0	0	0	486	
1	0	0	0	0	463	
2	0	0	0	0	460	
3	0	0	0	0	667	
4	0	0	0	0	706	
5	0	0	0	0	618	
6	0	0	0	0	503	
7	0	0	0	0	473	
8	0	0	0	0	473	
9	0	0	0	0	487	
10	0	0	0	0	547	
11	0	0	0	0	588	
12	0	0	0	0	611	
13	0	0	0	0	568	
14	0	0	0	0	504	
15	0	0	0	0	518	
0	0	0	0	0	563	
1	0	0	0	0	563	
2	0	0	0	0	516	
3	0	0	0	0	470	
4	0	0	0	0	466	
5	0	0	0	0	449	
6	0	0	0	0	409	
7	0	0	0	0	370	
8	0	0	0	0	379	
9	0	0	0	0	445	
10	0	0	0	0	483	
11	0	0	0	0	448	
12	0	0	0	0	371	
13	0	0	0	0	415	
14	0	0	0	0	515	
15	0	0	0	0	611	
0	0	0	0	0	447	
1	0	0	0	0	429	
2	0	0	0	0	684	
3	0	0	0	0	765	
4	0	0	0	0	593	
5	0	0	0	0	570	
6	0	0	0	0	565	
7	0	0	0	0	688	
8	0	0	0	0	774	
9	0	0	0	0	719	
10	0	0	0	0	546	
11	0	0	0	0	440	
12	0	0	0	0	354	
13	0	0	0	0	347	
14	0	0	0	0	391	
15	0	0	0	0	444	
0	0	0	0	0	444	
1	0	0	0	0	492	
2	0	0	0	0	487	
3	0	0	0	0	493	
4	0	0	0	0	455	
5	0	0	0	0	566	
6	0	0	0	0	609	
7	0	0	0	0	556	
8	0	0	0	0	465	
9	0	0	0	0	364	
10	0	0	0	0	391	
11	0	0	0	0	479	
12	0	0	0	0	438	
13	0	0	0	0	455	
14	0	0	0	0	467	
15	0	0	0	0	570	
0	0	0	0	0	702	
1	0	0	0	0	612	
2	0	0	0	0	527	
3	0	0	0	0	556	
4	0	0	0	0	538	
5	0	0	0	0	639	
6	0	0	0	0	745	
7	0	0	0	0	613	
8	0	0	0	0	445	
9	0	0	0	0	456	
10	0	0	0	0	409	
11	0	0	0	0	404	
12	0	0	0	0	425	
13	0	0	0	0	440	
14	0	0	0	0	358	
15	0	0	0	0	319	
0	0	0	0	0	407	
1	0	0	0	0	465	
2	0	0	0	0	482	
3	0	0	0	0	530	
4	0	0	0	0	671	
5	0	0	0	0	591	
6	0	0	0	0	592	
7	0	0	0	0	588	
8	0	0	0	0	681	
9	0	0	0	0	601	
10	0	0	0	0	556	
11	0	0	0	0	545	
12	0	0	0	0	542	
13	0	0	0	0	511	
14	0	0	0	0	491	
15	0	0	0	0	543	
0	0	0	0	0	451	
1	0	0	0	0	376	
2	0	0	0	0	337	
3	0	0	0	0	370	
4	0	0	0	0	429	
5	0	0	0	0	349	
6	0	0	0	0	313	
7	0	0	0	0	439	
8	0	0	0	0	579	
9	0	0	0	0	667	
10	0	0	0	0	727	
11	0	0	0	0	734	
12	0	0	0	0	677	
13	0	0	0	0	578	
14	0	0	0	0	537	
15	0	0	0	0	534	
0	0	0	0	0	447	
1	0	0	0	0	495	
2	0	0	0	0	497	
3	0	0	0	0	440	
4	0	0	0	0	513	
5	0	0	0	0	608	
6	0	0	0	0	595	
7	0	0	0	0	559	
8	0	0	0	0	496	
9	0	0	0	0	478	
10	0	0	0	0	387	
11	0	0	0	0	337	
12	0	0	0	0	364	
13	0	0	0	0	435	
14	0	0	0	0	434	
15	0	0	0	0	543	
0	0	0	0	0	551	
1	0	0	0	0	574	
2	0	0	0	0	671	
3	0	0	0	0	611	
4	0	0	0	0	493	
5	0	0	0	0	511	
6	0	0	0	0	552	
7	0	0	0	0	557	
8	0	0	0	0	533	
9	0	0	0	0	503	
10	0	0	0	0	416	
11	0	0	0	0	359	
12	0	0	0	0	404	
13	0	0	0	0	405	
14	0	0	0	0	428	
15	0	0	0	0	547	
0	0	0	0	0	612	
1	0	0	0	0	648	
2	0	0	0	0	645	
3	0	0	0	0	617	
4	0	0	0	0	619	
5	0	0	0	0	595	
6	0	0	0	0	448	
7	0	0	0	0	391	
8	0	0	0	0	484	
9	0	0	0	0	593	
10	0	0	0	0	484	
11	0	0	0	0	396	
12	0	0	0	0	353	
13	0	0	0	0	413	
14	0	0	0	0	480	
15	0	0	0	0	572	
0	0	0	0	0	561	
1	0	0	0	0	647	
2	0	0	0	0	744	
3	0	0	0	0	642	
4	0	0	0	0	547	
5	0	0	0	0	449	
6	0	0	0	0	374	
7	0	0	0	0	406	
8	0	0	0	0	550	
9	0	0	0	0	536	
10	0	0	0	0	442	
11	0	0	0	0	325	
12	0	0	0	0	352	
13	0	0	0	0	425	
14	0	0	0	0	481	
15	0	0	0	0	653	
0	0	0	0	0	735	
1	0	0	0	0	696	
2	0	0	0	0	648	
3	0	0	0	0	531	
4	0	0	0	0	469	
5	0	0	0	0	474	
6	0	0	0	0	480	
7	0	0	0	0	368	
8	0	0	0	0	313	
9	0	0	0	0	352	
10	0	0	0	0	436	
11	0	0	0	0	386	
12	0	0	0	0	377	
13	0	0	0	0	510	
14	0	0	0	0	595	
15	0	0	0	0	800	
0	0	0	0	0	745	
1	0	0	0	0	652	
2	0	0	0	0	669	
3	0	0	0	0	492	
4	0	0	0	0	496	
5	0	0	0	0	519	
6	0	0	0	0	454	
7	0	0	0	0	396	
8	0	0	0	0	443	
9	0	0	0	0	479	
10	0	0	0	0	375	
11	0	0	0	0	329	
12	0	0	0	0	399	
13	0	0	0	0	455	
14	0	0	0	0	535	
15	0	0	0	0	665	
0	0	0	0	0	689	
1	0	0	0	0	643	
2	0	0	0	0	760	
3	0	0	0	0	750	
4	0	0	0	0	556	
5	0	0	0	0	405	
6	0	0	0	0	393	
7	0	0	0	0	364	
8	0	0	0	0	350	
9	0	0	0	0	383	
10	0	0	0	0	463	
11	0	0	0	0	501	
12	0	0	0	0	527	
13	0	0	0	0	431	
14	0	0	0	0	438	
15	0	0	0	0	585	
0	0	0	0	0	545	
1	0	0	0	0	563	
2	0	0	0	0	756	
3	0	0	0	0	678	
4	0	0	0	0	678	
5	0	0	0	0	502	
6	0	0	0	0	418	
7	0	0	0	0	460	
8	0	0	0	0	467	
9	0	0	0	0	438	
10	0	0	0	0	403	
11	0	0	0	0	399	
12	0	0	0	0	395	
13	0	0	0	0	426	
14	0	0	0	0	480	
15	0	0	0	0	484	
0	0	0	0	0	425	
1	0	0	0	0	443	
2	0	0	0	0	553	
3	0	0	0	0	695	
4	0	0	0	0	643	
5	0	0	0	0	580	
6	0	0	0	0	511	
7	0	0	0	0	542	
8	0	0	0	0	623	
9	0	0	0	0	550	
10	0	0	0	0	489	
11	0	0	0	0	423	
12	0	0	0	0	477	
13	0	0	0	0	495	
14	0	0	0	0	544	
15	0	0	0	0	539	
0	0	0	0	0	544	
1	0	0	0	0	563	
2	0	0	0	0	512	
3	0	0	0	0	397	
4	0	0	0	0	344	
5	0	0	0	0	396	
6	0	0	0	0	476	
7	0	0	0	0	482	
8	0	0	0	0	515	
9	0	0	0	0	515	
10	0	0	0	0	579	
11	0	0	0	0	686	
12	0	0	0	0	611	
13	0	0	0	0	627	
14	0	0	0	0	499	
15	0	0	0	0	434	
0	0	0	0	0	402	
1	0	0	0	0	428	
2	0	0	0	0	547	
3	0	0	0	0	646	
4	0	0	0	0	701	
5	0	0	0	0	663	
6	0	0	0	0	541	
7	0	0	0	0	432	
8	0	0	0	0	368	
9	0	0	0	0	385	
10	0	0	0	0	419	
11	0	0	0	0	385	
12	0	0	0	0	391	
13	0	0	0	0	376	
14	0	0	0	0	371	
15	0	0	0	0	509	
0	0	0	0	0	623	
1	0	0	0	0	630	
2	0	0	0	0	609	
3	0	0	0	0	544	
4	0	0	0	0	623	
5	0	0	0	0	583	
6	0	0	0	0	560	
7	0	0	0	0	616	
8	0	0	0	0	625	
9	0	0	0	0	518	
10	0	0	0	0	487	
11	0	0	0	0	542	
12	0	0	0	0	623	
13	0	0	0	0	570	
14	0	0	0	0	448	
15	0	0	0	0	417	
0	0	0	0	0	387	
1	0	0	0	0	361	
2	0	0	0	0	414	
3	0	0	0	0	460	
4	0	0	0	0	444	
5	0	0	0	0	529	
6	0	0	0	0	499	
7	0	0	0	0	461	
8	0	0	0	0	419	
9	0	0	0	0	419	
10	0	0	0	0	476	
11	0	0	0	0	512	
12	0	0	0	0	632	
13	0	0	0	0	749	
14	0	0	0	0	877	
15	0	0	0	0	902	
0	0	0	0	0	623	
1	0	0	0	0	444	
2	0	0	0	0	362	
3	0	0	0	0	352	
4	0	0	0	0	394	
5	0	0	0	0	430	
6	0	0	0	0	425	
7	0	0	0	0	412	
8	0	0	0	0	407	
9	0	0	0	0	464	
10	0	0	0	0	475	
11	0	0	0	0	495	
12	0	0	0	0	506	
13	0	0	0	0	506	
14	0	0	0	0	564	
15	0	0	0	0	504	
0	0	0	0	0	380	
1	0	0	0	0	395	
2	0	0	0	0	440	
3	0	0	0	0	449	
4	0	0	0	0	449	
5	0	0	0	0	512	
6	0	0	0	0	605	
7	0	0	0	0	603	
8	0	0	0	0	630	
9	0	0	0	0	567	
10	0	0	0	0	561	
11	0	0	0	0	638	
12	0	0	0	0	655	
13	0	0	0	0	728	
14	0	0	0	0	750	
15	0	0	0	0	636	
0	0	0	0	0	487	
1	0	0	0	0	393	
2	0	0	0	0	270	
3	0	0	0	0	257	
4	0	0	0	0	345	
5	0	0	0	0	403	
6	0	0	0	0	543	
7	0	0	0	0	556	
8	0	0	0	0	538	
9	0	0	0	0	548	
10	0	0	0	0	570	
11	0	0	0	0	559	
12	0	0	0	0	547	
13	0	0	0	0	541	
14	0	0	0	0	505	
15	0	0	0	0	397	
0	0	0	0	0	382	
1	0	0	0	0	586	
2	0	0	0	0	627	
3	0	0	0	0	479	
4	0	0	0	0	438	
5	0	0	0	0	498	
6	0	0	0	0	494	
7	0	0	0	0	445	
8	0	0	0	0	529	
9	0	0	0	0	635	
10	0	0	0	0	703	
11	0	0	0	0	585	
12	0	0	0	0	478	
13	0	0	0	0	448	
14	0	0	0	0	455	
15	0	0	0	0	513	
0	0	0	0	0	480	
1	0	0	0	0	446	
2	0	0	0	0	430	
3	0	0	0	0	475	
4	0	0	0	0	465	
5	0	0	0	0	646	
6	0	0	0	0	576	
7	0	0	0	0	448	
8	0	0	0	0	477	
9	0	0	0	0	494	
10	0	0	0	0	509	
11	0	0	0	0	484	
12	0	0	0	0	516	
13	0	0	0	0	691	
14	0	0	0	0	651	
15	0	0	0	0	604	
0	0	0	0	0	503	
1	0	0	0	0	491	
2	0	0	0	0	470	
3	0	0	0	0	435	
4	0	0	0	0	375	
5	0	0	0	0	407	
6	0	0	0	0	417	
7	0	0	0	0	317	
8	0	0	0	0	334	
9	0	0	0	0	454	
10	0	0	0	0	607	
11	0	0	0	0	624	
12	0	0	0	0	583	
13	0	0	0	0	544	
14	0	0	0	0	558	
15	0	0	0	0	705	
0	0	0	0	0	746	
1	0	0	0	0	643	
2	0	0	0	0	568	
3	0	0	0	0	513	
4	0	0	0	0	517	
5	0	0	0	0	494	
6	0	0	0	0	445	
7	0	0	0	0	418	
8	0	0	0	0	374	
9	0	0	0	0	321	
10	0	0	0	0	289	
11	0	0	0	0	309	
12	0	0	0	0	353	
13	0	0	0	0	491	
14	0	0	0	0	690	
15	0	0	0	0	816	
0	0	0	0	0	763	
1	0	0	0	0	732	
2	0	0	0	0	615	
3	0	0	0	0	617	
4	0	0	0	0	625	
5	0	0	0	0	539	
6	0	0	0	0	447	
7	0	0	0	0	437	
8	0	0	0	0	383	
9	0	0	0	0	339	
10	0	0	0	0	383	
11	0	0	0	0	436	
12	0	0	0	0	458	
13	0	0	0	0	496	
14	0	0	0	0	461	
15	0	0	0	0	443	
0	0	0	0	0	435	
1	0	0	0	0	384	
2	0	0	0	0	363	
3	0	0	0	0	505	
4	0	0	0	0	754	
5	0	0	0	0	684	
6	0	0	0	0	637	
7	0	0	0	0	584	
8	0	0	0	0	512	
9	0	0	0	0	428	
10	0	0	0	0	464	
11	0	0	0	0	640	
12	0	0	0	0	705	
13	0	0	0	0	715	
14	0	0	0	0	615	
15	0	0	0	0	507	
0	0	0	0	0	422	
1	0	0	0	0	381	
2	0	0	0	0	446	
3	0	0	0	0	505	
4	0	0	0	0	399	
5	0	0	0	0	374	
6	0	0	0	0	353	
7	0	0	0	0	330	
8	0	0	0	0	357	
9	0	0	0	0	484	
10	0	0	0	0	526	
11	0	0	0	0	538	
12	0	0	0	0	745	
13	0	0	0	0	696	
14	0	0	0	0	632	
15	0	0	0	0	580	
0	0	0	0	0	551	
1	0	0	0	0	545	
2	0	0	0	0	557	
3	0	0	0	0	529	
4	0	0	0	0	504	
5	0	0	0	0	499	
6	0	0	0	0	434	
7	0	0	0	0	375	
8	0	0	0	0	367	
9	0	0	0	0	392	
10	0	0	0	0	374	
11	0	0	0	0	425	
12	0	0	0	0	562	
13	0	0	0	0	639	
14	0	0	0	0	644	
15	0	0	0	0	699	
0	0	0	0	0	661	
1	0	0	0	0	622	
2	0	0	0	0	559	
3	0	0	0	0	441	
4	0	0	0	0	459	
5	0	0	0	0	483	
6	0	0	0	0	490	
7	0	0	0	0	568	
8	0	0	0	0	515	
9	0	0	0	0	436	
10	0	0	0	0	416	
11	0	0	0	0	345	
12	0	0	0	0	336	
13	0	0	0	0	359	
14	0	0	0	0	366	
15	0	0	0	0	411	
0	0	0	0	0	563	
1	0	0	0	0	629	
2	0	0	0	0	705	
3	0	0	0	0	683	
4	0	0	0	0	684	
5	0	0	0	0	632	
6	0	0	0	0	540	
7	0	0	0	0	433	
8	0	0	0	0	546	
9	0	0	0	0	583	
10	0	0	0	0	574	
11	0	0	0	0	514	
12	0	0	0	0	435	
13	0	0	0	0	405	
14	0	0	0	0	487	
15	0	0	0	0	556	
0	0	0	0	0	469	
1	0	0	0	0	319	
2	0	0	0	0	255	
3	0	0	0	0	296	
4	0	0	0	0	459	
5	0	0	0	0	573	
6	0	0	0	0	572	
7	0	0	0	0	736	
8	0	0	0	0	917	
9	0	0	0	0	792	
10	0	0	0	0	608	
11	0	0	0	0	548	
12	0	0	0	0	500	
13	0	0	0	0	431	
14	0	0	0	0	449	
15	0	0	0	0	438	
0	0	0	0	0	483	
1	0	0	0	0	471	
2	0	0	0	0	484	
3	0	0	0	0	482	
4	0	0	0	0	421	
5	0	0	0	0	409	
6	0	0	0	0	443	
7	0	0	0	0	483	
8	0	0	0	0	465	
9	0	0	0	0	373	
10	0	0	0	0	354	
11	0	0	0	0	423	
12	0	0	0	0	442	
13	0	0	0	0	412	
14	0	0	0	0	504	
15	0	0	0	0	576	
0	0	0	0	0	697	
1	0	0	0	0	769	
2	0	0	0	0	744	
3	0	0	0	0	662	
4	0	0	0	0	646	
5	0	0	0	0	578	
6	0	0	0	0	464	
7	0	0	0	0	460	
8	0	0	0	0	449	
9	0	0	0	0	486	
10	0	0	0	0	492	
11	0	0	0	0	435	
12	0	0	0	0	460	
13	0	0	0	0	511	
14	0	0	0	0	467	
15	0	0	0	0	388	
0	0	0	0	0	336	
1	0	0	0	0	391	
2	0	0	0	0	439	
3	0	0	0	0	505	
4	0	0	0	0	691	
5	0	0	0	0	791	
6	0	0	0	0	760	
7	0	0	0	0	719	
8	0	0	0	0	625	
9	0	0	0	0	476	
10	0	0	0	0	419	
11	0	0	0	0	440	
12	0	0	0	0	436	
13	0	0	0	0	425	
14	0	0	0	0	384	
15	0	0	0	0	383	
0	0	0	0	0	421	
1	0	0	0	0	409	
2	0	0	0	0	448	
3	0	0	0	0	523	
4	0	0	0	0	501	
5	0	0	0	0	468	
6	0	0	0	0	511	
7	0	0	0	0	550	
8	0	0	0	0	488	
9	0	0	0	0	495	
10	0	0	0	0	592	
11	0	0	0	0	596	
12	0	0	0	0	492	
13	0	0	0	0	496	
14	0	0	0	0	571	
15	0	0	0	0	606	
0	0	0	0	0	628	
1	0	0	0	0	641	
2	0	0	0	0	684	
3	0	0	0	0	649	
4	0	0	0	0	559	
5	0	0	0	0	464	
6	0	0	0	0	430	
7	0	0	0	0	368	
8	0	0	0	0	363	
9	0	0	0	0	403	
10	0	0	0	0	455	
11	0	0	0	0	512	
12	0	0	0	0	519	
13	0	0	0	0	485	
14	0	0	0	0	384	
15	0	0	0	0	307	
0	0	0	0	0	321	
1	0	0	0	0	307	
2	0	0	0	0	294	
3	0	0	0	0	426	
4	0	0	0	0	750	
5	0	0	0	0	1022	
6	0	0	0	0	1022	
7	0	0	0	0	827	
8	0	0	0	0	593	
9	0	0	0	0	535	
10	0	0	0	0	460	
11	0	0	0	0	464	
12	0	0	0	0	397	
13	0	0	0	0	448	
14	0	0	0	0	444	
15	0	0	0	0	409	
0	0	0	0	0	383	
1	0	0	0	0	415	
2	0	0	0	0	422	
3	0	0	0	0	364	
4	0	0	0	0	339	
5	0	0	0	0	362	
6	0	0	0	0	396	
7	0	0	0	0	451	
8	0	0	0	0	508	
9	0	0	0	0	654	
10	0	0	0	0	819	
11	0	0	0	0	774	
12	0	0	0	0	629	
13	0	0	0	0	499	
14	0	0	0	0	385	
15	0	0	0	0	377	
0	0	0	0	0	349	
1	0	0	0	0	376	
2	0	0	0	0	567	
3	0	0	0	0	780	
4	0	0	0	0	850	
5	0	0	0	0	755	
6	0	0	0	0	556	
7	0	0	0	0	388	
8	0	0	0	0	377	
9	0	0	0	0	372	
10	0	0	0	0	351	
11	0	0	0	0	262	
12	0	0	0	0	391	
13	0	0	0	0	630	
14	0	0	0	0	740	
15	0	0	0	0	575	
0	0	0	0	0	506	
1	0	0	0	0	620	
2	0	0	0	0	616	
3	0	0	0	0	533	
4	0	0	0	0	533	
5	0	0	0	0	419	
6	0	0	0	0	405	
7	0	0	0	0	413	
8	0	0	0	0	377	
9	0	0	0	0	364	
10	0	0	0	0	365	
11	0	0	0	0	376	
12	0	0	0	0	429	
13	0	0	0	0	515	
14	0	0	0	0	507	
15	0	0	0	0	590	
0	0	0	0	0	672	
1	0	0	0	0	748	
2	0	0	0	0	593	
3	0	0	0	0	598	
4	0	0	0	0	707	
5	0	0	0	0	675	
6	0	0	0	0	573	
7	0	0	0	0	542	
8	0	0	0	0	464	
9	0	0	0	0	409	
10	0	0	0	0	415	
11	0	0	0	0	531	
12	0	0	0	0	649	
13	0	0	0	0	518	
14	0	0	0	0	441	
15	0	0	0	0	393	
0	0	0	0	0	377	
1	0	0	0	0	460	
2	0	0	0	0	463	
3	0	0	0	0	490	
4	0	0	0	0	550	
5	0	0	0	0	499	
6	0	0	0	0	492	
7	0	0	0	0	473	
8	0	0	0	0	439	
9	0	0	0	0	445	
10	0	0	0	0	505	
11	0	0	0	0	499	
12	0	0	0	0	504	
13	0	0	0	0	478	
14	0	0	0	0	483	
15	0	0	0	0	582	
0	0	0	0	0	671	
1	0	0	0	0	561	
2	0	0	0	0	505	
3	0	0	0	0	490	
4	0	0	0	0	452	
5	0	0	0	0	467	
6	0	0	0	0	455	
7	0	0	0	0	508	
8	0	0	0	0	499	
9	0	0	0	0	435	
10	0	0	0	0	430	
11	0	0	0	0	500	
12	0	0	0	0	487	
13	0	0	0	0	468	
14	0	0	0	0	602	
15	0	0	0	0	617	
0	0	0	0	0	614	
1	0	0	0	0	629	
2	0	0	0	0	590	
3	0	0	0	0	647	
4	0	0	0	0	760	
5	0	0	0	0	653	
6	0	0	0	0	591	
7	0	0	0	0	551	
8	0	0	0	0	442	
9	0	0	0	0	401	
10	0	0	0	0	397	
11	0	0	0	0	433	
12	0	0	0	0	421	
13	0	0	0	0	408	
14	0	0	0	0	390	
15	0	0	0	0	354	
0	0	0	0	0	382	
1	0	0	0	0	458	
2	0	0	0	0	406	
3	0	0	0	0	353	
4	0	0	0	0	467	
5	0	0	0	0	486	
6	0	0	0	0	608	
7	0	0	0	0	688	
8	0	0	0	0	691	
9	0	0	0	0	626	
10	0	0	0	0	571	
11	0	0	0	0	682	
12	0	0	0	0	648	
13	0	0	0	0	538	
14	0	0	0	0	413	
15	0	0	0	0	353	
0	0	0	0	0	434	
1	0	0	0	0	505	
2	0	0	0	0	576	
3	0	0	0	0	584	
4	0	0	0	0	657	
5	0	0	0	0	568	
6	0	0	0	0	449	
7	0	0	0	0	408	
8	0	0	0	0	389	
9	0	0	0	0	436	
10	0	0	0	0	468	
11	0	0	0	0	476	
12	0	0	0	0	495	
13	0	0	0	0	492	
14	0	0	0	0	486	
15	0	0	0	0	479	
0	0	0	0	0	520	
1	0	0	0	0	556	
2	0	0	0	0	549	
3	0	0	0	0	518	
4	0	0	0	0	575	
5	0	0	0	0	520	
6	0	0	0	0	563	
7	0	0	0	0	574	
8	0	0	0	0	441	
9	0	0	0	0	379	
10	0	0	0	0	341	
11	0	0	0	0	375	
12	0	0	0	0	513	
13	0	0	0	0	530	
14	0	0	0	0	662	
15	0	0	0	0	780	
0	0	0	0	0	774	
1	0	0	0	0	580	
2	0	0	0	0	552	
3	0	0	0	0	537	
4	0	0	0	0	514	
5	0	0	0	0	499	
6	0	0	0	0	487	
7	0	0	0	0	478	
8	0	0	0	0	430	
9	0	0	0	0	376	
10	0	0	0	0	403	
11	0	0	0	0	419	
12	0	0	0	0	462	
13	0	0	0	0	516	
14	0	0	0	0	451	
15	0	0	0	0	407	
0	0	0	0	0	529	
1	0	0	0	0	504	
2	0	0	0	0	480	
3	0	0	0	0	584	
4	0	0	0	0	554	
5	0	0	0	0	495	
6	0	0	0	0	467	
7	0	0	0	0	459	
8	0	0	0	0	425	
9	0	0	0	0	490	
10	0	0	0	0	542	
11	0	0	0	0	561	
12	0	0	0	0	612	
13	0	0	0	0	716	
14	0	0	0	0	687	
15	0	0	0	0	690	
0	0	0	0	0	669	
1	0	0	0	0	587	
2	0	0	0	0	467	
3	0	0	0	0	378	
4	0	0	0	0	352	
5	0	0	0	0	441	
6	0	0	0	0	486	
7	0	0	0	0	453	
8	0	0	0	0	446	
9	0	0	0	0	501	
10	0	0	0	0	530	
11	0	0	0	0	430	
12	0	0	0	0	360	
13	0	0	0	0	369	
14	0	0	0	0	428	
15	0	0	0	0	513	
0	0	0	0	0	609	
1	0	0	0	0	678	
2	0	0	0	0	722	
3	0	0	0	0	673	
4	0	0	0	0	604	
5	0	0	0	0	561	
6	0	0	0	0	519	
7	0	0	0	0	476	
8	0	0	0	0	430	
9	0	0	0	0	399	
10	0	0	0	0	409	
11	0	0	0	0	375	
12	0	0	0	0	400	
13	0	0	0	0	436	
14	0	0	0	0	495	
15	0	0	0	0	536	
0	0	0	0	0	476	
1	0	0	0	0	501	
2	0	0	0	0	626	
3	0	0	0	0	655	
4	0	0	0	0	561	
5	0	0	0	0	541	
6	0	0	0	0	509	
7	0	0	0	0	556	
8	0	0	0	0	553	
9	0	0	0	0	556	
10	0	0	0	0	599	
11	0	0	0	0	552	
12	0	0	0	0	512	
13	0	0	0	0	434	
14	0	0	0	0	384	
15	0	0	0	0	396	
0	0	0	0	0	478	
1	0	0	0	0	556	
2	0	0	0	0	515	
3	0	0	0	0	491	
4	0	0	0	0	494	
5	0	0	0	0	519	
6	0	0	0	0	538	
7	0	0	0	0	540	
8	0	0	0	0	504	
9	0	0	0	0	479	
10	0	0	0	0	454	
11	0	0	0	0	413	
12	0	0	0	0	401	
13	0	0	0	0	403	
14	0	0	0	0	372	
15	0	0	0	0	363	
0	0	0	0	0	468	
1	0	0	0	0	680	
2	0	0	0	0	766	
3	0	0	0	0	697	
4	0	0	0	0	468	
5	0	0	0	0	482	
6	0	0	0	0	644	
7	0	0	0	0	621	
8	0	0	0	0	585	
9	0	0	0	0	591	
10	0	0	0	0	607	
11	0	0	0	0	578	
12	0	0	0	0	561	
13	0	0	0	0	574	
14	0	0	0	0	514	
15	0	0	0	0	452	
0	0	0	0	0	421	
1	0	0	0	0	378	
2	0	0	0	0	325	
3	0	0	0	0	327	
4	0	0	0	0	329	
5	0	0	0	0	312	
6	0	0	0	0	342	
7	0	0	0	0	459	
8	0	0	0	0	689	
9	0	0	0	0	796	
10	0	0	0	0	706	
11	0	0	0	0	685	
12	0	0	0	0	704	
13	0	0	0	0	807	
14	0	0	0	0	735	
15	0	0	0	0	625	
0	0	0	0	0	502	
1	0	0	0	0	449	
2	0	0	0	0	389	
3	0	0	0	0	342	
4	0	0	0	0	351	
5	0	0	0	0	369	
6	0	0	0	0	359	
7	0	0	0	0	380	
8	0	0	0	0	366	
9	0	0	0	0	335	
10	0	0	0	0	442	
11	0	0	0	0	499	
12	0	0	0	0	467	
13	0	0	0	0	472	
14	0	0	0	0	538	
15	0	0	0	0	674	
0	0	0	0	0	779	
1	0	0	0	0	718	
2	0	0	0	0	624	
3	0	0	0	0	473	
4	0	0	0	0	457	
5	0	0	0	0	487	
6	0	0	0	0	492	
7	0	0	0	0	481	
8	0	0	0	0	496	
9	0	0	0	0	504	
10	0	0	0	0	476	
11	0	0	0	0	488	
12	0	0	0	0	460	
13	0	0	0	0	423	
14	0	0	0	0	435	
15	0	0	0	0	440	
0	0	0	0	0	410	
1	0	0	0	0	384	
2	0	0	0	0	462	
3	0	0	0	0	600	
4	0	0	0	0	642	
5	0	0	0	0	640	
6	0	0	0	0	607	
7	0	0	0	0	652	
8	0	0	0	0	661	
9	0	0	0	0	559	
10	0	0	0	0	491	
11	0	0	0	0	499	
12	0	0	0	0	606	
13	0	0	0	0	630	
14	0	0	0	0	515	
15	0	0	0	0	439	
0	0	0	0	0	428	
1	0	0	0	0	408	
2	0	0	0	0	345	
3	0	0	0	0	264	
4	0	0	0	0	246	
5	0	0	0	0	193	
6	0	0	0	0	201	
7	0	0	0	0	293	
8	0	0	0	0	549	
9	0	0	0	0	782	
10	0	0	0	0	1022	
11	0	0	0	0	1022	
12	0	0	0	0	820	
13	0	0	0	0	709	
14	0	0	0	0	547	
15	0	0	0	0	443	
0	0	0	0	0	495	
1	0	0	0	0	588	
2	0	0	0	0	594	
3	0	0	0	0	565	
4	0	0	0	0	493	
5	0	0	0	0	441	
6	0	0	0	0	398	
7	0	0	0	0	313	
8	0	0	0	0	269	
9	0	0	0	0	260	
10	0	0	0	0	275	
11	0	0	0	0	331	
12	0	0	0	0	450	
13	0	0	0	0	494	
14	0	0	0	0	555	
15	0	0	0	0	635	
0	0	0	0	0	690	
1	0	0	0	0	602	
2	0	0	0	0	591	
3	0	0	0	0	664	
4	0	0	0	0	684	
5	0	0	0	0	653	
6	0	0	0	0	580	
7	0	0	0	0	523	
8	0	0	0	0	489	
9	0	0	0	0	460	
10	0	0	0	0	383	
11	0	0	0	0	329	
12	0	0	0	0	330	
13	0	0	0	0	265	
14	0	0	0	0	223	
15	0	0	0	0	241	
0	0	0	0	0	208	
1	0	0	0	0	222	
2	0	0	0	0	423	
3	0	0	0	0	658	
4	0	0	0	0	1022	
5	0	0	0	0	1022	
6	0	0	0	0	1022	
7	0	0	0	0	1022	
8	0	0	0	0	777	
9	0	0	0	0	463	
10	0	0	0	0	283	
11	0	0	0	0	216	
12	0	0	0	0	305	
13	0	0	0	0	329	
14	0	0	0	0	390	
15	0	0	0	0	461	
0	0	0	0	0	381	
1	0	0	0	0	344	
2	0	0	0	0	393	
3	0	0	0	0	427	
4	0	0	0	0	435	
5	0	0	0	0	457	
6	0	0	0	0	412	
7	0	0	0	0	319	
8	0	0	0	0	324	
9	0	0	0	0	447	
10	0	0	0	0	473	
11	0	0	0	0	487	
12	0	0	0	0	724	
13	0	0	0	0	923	
14	0	0	0	0	876	
15	0	0	0	0	783	
0	0	0	0	0	718	
1	0	0	0	0	585	
2	0	0	0	0	502	
3	0	0	0	0	494	
4	0	0	0	0	501	
5	0	0	0	0	421	
6	0	0	0	0	418	
7	0	0	0	0	440	
8	0	0	0	0	438	
9	0	0	0	0	428	
10	0	0	0	0	378	
11	0	0	0	0	385	
12	0	0	0	0	371	
13	0	0	0	0	343	
14	0	0	0	0	344	
15	0	0	0	0	340	
0	0	0	0	0	411	
1	0	0	0	0	608	
2	0	0	0	0	705	
3	0	0	0	0	734	
4	0	0	0	0	788	
5	0	0	0	0	652	
6	0	0	0	0	633	
7	0	0	0	0	542	
8	0	0	0	0	552	
9	0	0	0	0	573	
10	0	0	0	0	515	
11	0	0	0	0	468	
12	0	0	0	0	462	
13	0	0	0	0	387	
14	0	0	0	0	390	
15	0	0	0	0	480	
0	0	0	0	0	499	
1	0	0	0	0	451	
2	0	0	0	0	430	
3	0	0	0	0	433	
4	0	0	0	0	439	
5	0	0	0	0	447	
6	0	0	0	0	381	
7	0	0	0	0	396	
8	0	0	0	0	455	
9	0	0	0	0	423	
10	0	0	0	0	489	
11	0	0	0	0	598	
12	0	0	0	0	743	
13	0	0	0	0	960	
14	0	0	0	0	813	
15	0	0	0	0	734	
0	0	0	0	0	712	
1	0	0	0	0	531	
2	0	0	0	0	446	
3	0	0	0	0	417	
4	0	0	0	0	394	
5	0	0	0	0	390	
6	0	0	0	0	427	
7	0	0	0	0	440	
8	0	0	0	0	430	
9	0	0	0	0	427	
10	0	0	0	0	436	
11	0	0	0	0	402	
12	0	0	0	0	327	
13	0	0	0	0	337	
14	0	0	0	0	331	
15	0	0	0	0	202	
0	0	0	0	0	165	
1	0	0	0	0	259	
2	0	0	0	0	281	
3	0	0	0	0	675	
4	0	0	0	0	1022	
5	0	0	0	0	1022	
6	0	0	0	0	1022	
7	0	0	0	0	932	
8	0	0	0	0	756	
9	0	0	0	0	670	
10	0	0	0	0	717	
11	0	0	0	0	567	
12	0	0	0	0	336	
13	0	0	0	0	281	
14	0	0	0	0	282	
15	0	0	0	0	332	
0	0	0	0	0	394	
1	0	0	0	0	358	
2	0	0	0	0	335	
3	0	0	0	0	329	
4	0	0	0	0	257	
5	0	0	0	0	165	
6	0	0	0	0	152	
7	0	0	0	0	187	
8	0	0	0	0	283	
9	0	0	0	0	494	
10	0	0	0	0	984	
11	0	0	0	0	1022	
12	0	0	0	0	1022	
13	0	0	0	0	950	
14	0	0	0	0	773	
15	0	0	0	0	535	
0	0	0	0	0	438	
1	0	0	0	0	401	
2	0	0	0	0	381	
3	0	0	0	0	338	
4	0	0	0	0	339	
5	0	0	0	0	370	
6	0	0	0	0	389	
7	0	0	0	0	399	
8	0	0	0	0	390	
9	0	0	0	0	395	
10	0	0	0	0	389	
11	0	0	0	0	380	
12	0	0	0	0	412	
13	0	0	0	0	484	
14	0	0	0	0	645	
15	0	0	0	0	595	
0	0	0	0	0	595	
1	0	0	0	0	639	
2	0	0	0	0	684	
3	0	0	0	0	675	
4	0	0	0	0	585	
5	0	0	0	0	560	
6	0	0	0	0	485	
7	0	0	0	0	459	
8	0	0	0	0	457	
9	0	0	0	0	453	
10	0	0	0	0	468	
11	0	0	0	0	475	
12	0	0	0	0	468	
13	0	0	0	0	460	
14	0	0	0	0	475	
15	0	0	0	0	475	
0	0	0	0	0	402	
1	0	0	0	0	380	
2	0	0	0	0	369	
3	0	0	0	0	368	
4	0	0	0	0	391	
5	0	0	0	0	529	
6	0	0	0	0	782	
7	0	0	0	0	902	
8	0	0	0	0	859	
9	0	0	0	0	693	
10	0	0	0	0	535	
11	0	0	0	0	513	
12	0	0	0	0	604	
13	0	0	0	0	506	
14	0	0	0	0	441	
15	0	0	0	0	426	
0	0	0	0	0	420	
1	0	0	0	0	423	
2	0	0	0	0	425	
3	0	0	0	0	417	
4	0	0	0	0	396	
5	0	0	0	0	329	
6	0	0	0	0	280	
7	0	0	0	0	254	
8	0	0	0	0	150	
9	0	0	0	0	91	
10	0	0	0	0	301	
11	0	0	0	0	588	
12	0	0	0	0	782	
13	0	0	0	0	993	
14	0	0	0	0	1022	
15	0	0	0	0	1022	
0	0	0	0	0	1022	
1	0	0	0	0	837	
2	0	0	0	0	497	
3	0	0	0	0	418	
4	0	0	0	0	318	
5	0	0	0	0	279	
6	0	0	0	0	269	
7	0	0	0	0	288	
8	0	0	0	0	322	
9	0	0	0	0	357	
10	0	0	0	0	352	
11	0	0	0	0	362	
12	0	0	0	0	384	
13	0	0	0	0	416	
14	0	0	0	0	419	
15	0	0	0	0	425	
0	0	0	0	0	431	
1	0	0	0	0	459	
2	0	0	0	0	543	
3	0	0	0	0	666	
4	0	0	0	0	668	
5	0	0	0	0	604	
6	0	0	0	0	558	
7	0	0	0	0	500	
8	0	0	0	0	472	
9	0	0	0	0	444	
10	0	0	0	0	480	
11	0	0	0	0	511	
12	0	0	0	0	499	
13	0	0	0	0	486	
14	0	0	0	0	474	
15	0	0	0	0	497	
0	0	0	0	0	467	
1	0	0	0	0	302	
2	0	0	0	0	239	
3	0	0	0	0	236	
4	0	0	0	0	218	
5	0	0	0	0	279	
6	0	0	0	0	481	
7	0	0	0	0	865	
8	0	0	0	0	1022	
9	0	0	0	0	1022	
10	0	0	0	0	1022	
11	0	0	0	0	992	
12	0	0	0	0	728	
13	0	0	0	0	544	
14	0	0	0	0	361	
15	0	0	0	0	282	
0	0	0	0	0	289	
1	0	0	0	0	308	
2	0	0	0	0	317	
3	0	0	0	0	354	
4	0	0	0	0	376	
5	0	0	0	0	392	
6	0	0	0	0	416	
7	0	0	0	0	444	
8	0	0	0	0	460	
9	0	0	0	0	463	
10	0	0	0	0	461	
11	0	0	0	0	441	
12	0	0	0	0	440	
13	0	0	0	0	379	
14	0	0	0	0	365	
15	0	0	0	0	293	
0	0	0	0	0	289	
1	0	0	0	0	299	
2	0	0	0	0	345	
3	0	0	0	0	591	
4	0	0	0	0	943	
5	0	0	0	0	1022	
6	0	0	0	0	1022	
7	0	0	0	0	1021	
8	0	0	0	0	607	
9	0	0	0	0	374	
10	0	0	0	0	304	
11	0	0	0	0	308	
12	0	0	0	0	357	
13	0	0	0	0	338	
14	0	0	0	0	354	
15	0	0	0	0	427	
0	0	0	0	0	465	
1	0	0	0	0	444	
2	0	0	0	0	369	
3	0	0	0	0	400	
4	0	0	0	0	385	
5	0	0	0	0	367	
6	0	0	0	0	210	
7	0	0	0	0	278	
8	0	0	0	0	391	
9	0	0	0	0	451	
10	0	0	0	0	474	
11	0	0	0	0	641	
12	0	0	0	0	726	
13	0	0	0	0	1022	
14	0	0	0	0	1022	
15	0	0	0	0	979	
0	0	0	0	0	895	
1	0	0	0	0	518	
2	0	0	0	0	492	
3	0	0	0	0	496	
4	0	0	0	0	329	
5	0	0	0	0	243	
6	0	0	0	0	157	
7	0	0	0	0	123	
8	0	0	0	0	204	
9	0	0	0	0	267	
10	0	0	0	0	297	
11	0	0	0	0	337	
12	0	0	0	0	331	
13	0	0	0	0	440	
14	0	0	0	0	719	
15	0	0	0	0	784	
0	0	0	0	0	604	
1	0	0	0	0	368	
2	0	0	0	0	266	
3	0	0	0	0	452	
4	0	0	0	0	846	
5	0	0	0	0	1022	
6	0	0	0	0	1022	
7	0	0	0	0	1022	
8	0	0	0	0	1022	
9	0	0	0	0	652	
10	0	0	0	0	391	
11	0	0	0	0	215	
12	0	0	0	0	120	
13	0	0	0	0	120	
14	0	0	0	0	157	
15	0	0	0	0	205	
0	0	0	0	0	248	
1	0	0	0	0	325	
2	0	0	0	0	385	
3	0	0	0	0	383	
4	0	0	0	0	397	
5	0	0	0	0	409	
6	0	0	0	0	447	
7	0	0	0	0	500	
8	0	0	0	0	498	
9	0	0	0	0	509	
10	0	0	0	0	511	
11	0	0	0	0	510	
12	0	0	0	0	512	
13	0	0	0	0	531	
14	0	0	0	0	552	
15	0	0	0	0	527	
0	0	0	0	0	504	
1	0	0	0	0	526	
2	0	0	0	0	543	
3	0	0	0	0	518	
4	0	0	0	0	471	
5	0	0	0	0	499	
6	0	0	0	0	511	
7	0	0	0	0	512	
8	0	0	0	0	587	
9	0	0	0	0	609	
10	0	0	0	0	613	
11	0	0	0	0	519	
12	0	0	0	0	543	
13	0	0	0	0	716	
14	0	0	0	0	630	
15	0	0	0	0	536	
0	0	0	0	0	494	
1	0	0	0	0	460	
2	0	0	0	0	450	
3	0	0	0	0	459	
4	0	0	0	0	480	
5	0	0	0	0	484	
6	0	0	0	0	482	
7	0	0	0	0	462	
8	0	0	0	0	417	
9	0	0	0	0	349	
10	0	0	0	0	280	
11	0	0	0	0	237	
12	0	0	0	0	188	
13	0	0	0	0	111	
14	0	0	0	0	187	
15	0	0	0	0	466	
0	0	0	0	0	815	
1	0	0	0	0	1022	
2	0	0	0	0	1022	
3	0	0	0	0	1022	
4	0	0	0	0	1022	
5	0	0	0	0	814	
6	0	0	0	0	405	
7	0	0	0	0	341	
8	0	0	0	0	298	
9	0	0	0	0	177	
10	0	0	0	0	257	
11	0	0	0	0	326	
12	0	0	0	0	257	
13	0	0	0	0	359	
14	0	0	0	0	352	
15	0	0	0	0	340	
0	0	0	0	0	391	
1	0	0	0	0	355	
2	0	0	0	0	416	
3	0	0	0	0	441	
4	0	0	0	0	420	
5	0	0	0	0	529	
6	0	0	0	0	600	
7	0	0	0	0	533	
8	0	0	0	0	563	
9	0	0	0	0	595	
10	0	0	0	0	664	
11	0	0	0	0	665	
12	0	0	0	0	590	
13	0	0	0	0	502	
14	0	0	0	0	446	
15	0	0	0	0	451	
0	0	0	0	0	469	
1	0	0	0	0	487	
2	0	0	0	0	483	
3	0	0	0	0	491	
4	0	0	0	0	496	
5	0	0	0	0	489	
6	0	0	0	0	500	
7	0	0	0	0	457	
8	0	0	0	0	372	
9	0	0	0	0	376	
10	0	0	0	0	358	
11	0	0	0	0	421	
12	0	0	0	0	492	
13	0	0	0	0	583	
14	0	0	0	0	836	
15	0	0	0	0	1020	
0	0	0	0	0	873	
1	0	0	0	0	713	
2	0	0	0	0	532	
3	0	0	0	0	436	
4	0	0	0	0	412	
5	0	0	0	0	398	
6	0	0	0	0	399	
7	0	0	0	0	398	
8	0	0	0	0	394	
9	0	0	0	0	399	
10	0	0	0	0	416	
11	0	0	0	0	406	
12	0	0	0	0	418	
13	0	0	0	0	457	
14	0	0	0	0	515	
15	0	0	0	0	555	
0	0	0	0	0	578	
1	0	0	0	0	615	
2	0	0	0	0	616	
3	0	0	0	0	583	
4	0	0	0	0	551	
5	0	0	0	0	514	
6	0	0	0	0	471	
7	0	0	0	0	458	
8	0	0	0	0	458	
9	0	0	0	0	446	
10	0	0	0	0	466	
11	0	0	0	0	500	
12	0	0	0	0	516	
13	0	0	0	0	513	
14	0	0	0	0	527	
15	0	0	0	0	586	
0	0	0	0	0	598	
1	0	0	0	0	578	
2	0	0	0	0	546	
3	0	0	0	0	560	
4	0	0	0	0	530	
5	0	0	0	0	485	
6	0	0	0	0	465	
7	0	0	0	0	464	
8	0	0	0	0	431	
9	0	0	0	0	409	
10	0	0	0	0	402	
11	0	0	0	0	422	
12	0	0	0	0	466	
13	0	0	0	0	501	
14	0	0	0	0	571	
15	0	0	0	0	654	
0	0	0	0	0	639	
1	0	0	0	0	605	
2	0	0	0	0	566	
3	0	0	0	0	551	
4	0	0	0	0	511	
5	0	0	0	0	495	
6	0	0	0	0	491	
7	0	0	0	0	487	
8	0	0	0	0	473	
9	0	0	0	0	510	
10	0	0	0	0	511	
11	0	0	0	0	486	
12	0	0	0	0	499	
13	0	0	0	0	502	
14	0	0	0	0	495	
15	0	0	0	0	484	
0	0	0	0	0	469	
1	0	0	0	0	483	
2	0	0	0	0	489	
3	0	0	0	0	481	
4	0	0	0	0	481	
5	0	0	0	0	489	
6	0	0	0	0	511	
7	0	0	0	0	551	
8	0	0	0	0	573	
9	0	0	0	0	575	
10	0	0	0	0	567	
11	0	0	0	0	556	
12	0	0	0	0	518	
13	0	0	0	0	498	
14	0	0	0	0	466	
15	0	0	0	0	457	
0	0	0	0	0	440	
1	0	0	0	0	410	
2	0	0	0	0	444	
3	0	0	0	0	488	
4	0	0	0	0	553	
5	0	0	0	0	592	
6	0	0	0	0	559	
7	0	0	0	0	540	
8	0	0	0	0	504	
9	0	0	0	0	477	
10	0	0	0	0	443	
11	0	0	0	0	426	
12	0	0	0	0	467	
13	0	0	0	0	528	
14	0	0	0	0	545	
15	0	0	0	0	521	
0	0	0	0	0	514	
1	0	0	0	0	511	
2	0	0	0	0	537	
3	0	0	0	0	551	
4	0	0	0	0	563	
5	0	0	0	0	577	
6	0	0	0	0	680	
7	0	0	0	0	705	
8	0	0	0	0	649	
9	0	0	0	0	563	
10	0	0	0	0	533	
11	0	0	0	0	438	
12	0	0	0	0	374	
13	0	0	0	0	365	
14	0	0	0	0	414	
15	0	0	0	0	464	
0	0	0	0	0	448	
1	0	0	0	0	475	
2	0	0	0	0	539	
3	0	0	0	0	505	
4	0	0	0	0	455	
5	0	0	0	0	484	
6	0	0	0	0	585	
7	0	0	0	0	660	
8	0	0	0	0	673	
9	0	0	0	0	593	
10	0	0	0	0	537	
11	0	0	0	0	531	
12	0	0	0	0	544	
13	0	0	0	0	544	
14	0	0	0	0	482	
15	0	0	0	0	447	
0	0	0	0	0	464	
1	0	0	0	0	448	
2	0	0	0	0	437	
3	0	0	0	0	451	
4	0	0	0	0	455	
5	0	0	0	0	461	
6	0	0	0	0	467	
7	0	0	0	0	496	
8	0	0	0	0	527	
9	0	0	0	0	511	
10	0	0	0	0	507	
11	0	0	0	0	494	
12	0	0	0	0	495	
13	0	0	0	0	513	
14	0	0	0	0	505	
15	0	0	0	0	486	
0	0	0	0	0	499	
1	0	0	0	0	499	
2	0	0	0	0	524	
3	0	0	0	0	523	
4	0	0	0	0	488	
5	0	0	0	0	484	
6	0	0	0	0	527	
7	0	0	0	0	579	
8	0	0	0	0	599	
9	0	0	0	0	546	
10	0	0	0	0	503	
11	0	0	0	0	487	
12	0	0	0	0	525	
13	0	0	0	0	542	
14	0	0	0	0	498	
15	0	0	0	0	515	
0	0	0	0	0	519	
1	0	0	0	0	518	
2	0	0	0	0	511	
3	0	0	0	0	501	
4	0	0	0	0	504	
5	0	0	0	0	498	
6	0	0	0	0	501	
7	0	0	0	0	504	
8	0	0	0	0	497	
9	0	0	0	0	488	
10	0	0	0	0	477	
11	0	0	0	0	482	
12	0	0	0	0	492	
13	0	0	0	0	506	
14	0	0	0	0	529	
15	0	0	0	0	528	
0	0	0	0	0	526	
1	0	0	0	0	513	
2	0	0	0	0	521	
3	0	0	0	0	545	
4	0	0	0	0	547	
5	0	0	0	0	531	
6	0	0	0	0	530	
7	0	0	0	0	530	
8	0	0	0	0	525	
9	0	0	0	0	505	
10	0	0	0	0	509	
11	0	0	0	0	503	
12	0	0	0	0	493	
13	0	0	0	0	493	
14	0	0	0	0	500	
15	0	0	0	0	506	
0	0	0	0	0	502	
1	0	0	0	0	495	
2	0	0	0	0	493	
3	0	0	0	0	496	
4	0	0	0	0	500	
5	0	0	0	0	459	
6	0	0	0	0	441	
7	0	0	0	0	468	
8	0	0	0	0	466	
9	0	0	0	0	470	
10	0	0	0	0	515	
11	0	0	0	0	600	
12	0	0	0	0	599	
13	0	0	0	0	573	
14	0	0	0	0	566	
15	0	0	0	0	591	
0	0	0	0	0	608	
1	0	0	0	0	558	
2	0	0	0	0	518	
3	0	0	0	0	499	
4	0	0	0	0	480	
5	0	0	0	0	465	
6	0	0	0	0	471	
7	0	0	0	0	487	
8	0	0	0	0	479	
9	0	0	0	0	473	
10	0	0	0	0	479	
11	0	0	0	0	488	
12	0	0	0	0	487	
13	0	0	0	0	494	
14	0	0	0	0	520	
15	0	0	0	0	530	
0	0	0	0	0	542	
1	0	0	0	0	510	
2	0	0	0	0	493	
3	0	0	0	0	509	
4	0	0	0	0	526	
5	0	0	0	0	502	
6	0	0	0	0	499	
7	0	0	0	0	511	
8	0	0	0	0	518	
9	0	0	0	0	528	
10	0	0	0	0	519	
11	0	0	0	0	504	
12	0	0	0	0	496	
13	0	0	0	0	489	
14	0	0	0	0	504	
15	0	0	0	0	514	
0	0	0	0	0	525	
1	0	0	0	0	507	
2	0	0	0	0	521	
3	0	0	0	0	522	
4	0	0	0	0	515	
5	0	0	0	0	507	
6	0	0	0	0	508	
7	0	0	0	0	541	
8	0	0	0	0	551	
9	0	0	0	0	534	
10	0	0	0	0	523	
11	0	0	0	0	518	
12	0	0	0	0	500	
13	0	0	0	0	499	
14	0	0	0	0	503	
15	0	0	0	0	493	
0	0	0	0	0	484	
1	0	0	0	0	465	
2	0	0	0	0	479	
3	0	0	0	0	531	
4	0	0	0	0	528	
5	0	0	0	0	506	
6	0	0	0	0	516	
7	0	0	0	0	531	
8	0	0	0	0	540	
9	0	0	0	0	542	
10	0	0	0	0	524	
11	0	0	0	0	502	
12	0	0	0	0	504	
13	0	0	0	0	517	
14	0	0	0	0	507	
15	0	0	0	0	488	
0	0	0	0	0	504	
1	0	0	0	0	514	
2	0	0	0	0	512	
3	0	0	0	0	507	
4	0	0	0	0	504	
5	0	0	0	0	501	
6	0	0	0	0	499	
7	0	0	0	0	505	
8	0	0	0	0	504	
9	0	0	0	0	499	
10	0	0	0	0	502	
11	0	0	0	0	506	
12	0	0	0	0	515	
13	0	0	0	0	514	
14	0	0	0	0	522	
15	0	0	0	0	531	
0	0	0	0	0	530	
1	0	0	0	0	518	
2	0	0	0	0	511	
3	0	0	0	0	507	
4	0	0	0	0	505	
5	0	0	0	0	509	
6	0	0	0	0	515	
7	0	0	0	0	509	
8	0	0	0	0	502	
9	0	0	0	0	500	
10	0	0	0	0	512	
11	0	0	0	0	512	
12	0	0	0	0	510	
13	0	0	0	0	503	
14	0	0	0	0	497	
15	0	0	0	0	499	
0	0	0	0	0	498	
1	0	0	0	0	516	
2	0	0	0	0	527	
3	0	0	0	0	531	
4	0	0	0	0	525	
5	0	0	0	0	512	
6	0	0	0	0	518	
7	0	0	0	0	527	
8	0	0	0	0	498	
9	0	0	0	0	504	
10	0	0	0	0	524	
11	0	0	0	0	521	
12	0	0	0	0	513	
13	0	0	0	0	503	
14	0	0	0	0	503	
15	0	0	0	0	509	
0	0	0	0	0	493	
1	0	0	0	0	471	
2	0	0	0	0	473	
3	0	0	0	0	457	
4	0	0	0	0	440	
5	0	0	0	0	497	
6	0	0	0	0	580	
7	0	0	0	0	587	
8	0	0	0	0	576	
9	0	0	0	0	574	
10	0	0	0	0	550	
11	0	0	0	0	527	
12	0	0	0	0	507	
13	0	0	0	0	512	
14	0	0	0	0	519	
15	0	0	0	0	504	
0	0	0	0	0	500	
1	0	0	0	0	496	
2	0	0	0	0	472	
3	0	0	0	0	484	
4	0	0	0	0	487	
5	0	0	0	0	501	
6	0	0	0	0	519	
7	0	0	0	0	539	
8	0	0	0	0	528	
9	0	0	0	0	508	
10	0	0	0	0	497	
11	0	0	0	0	491	
12	0	0	0	0	497	
13	0	0	0	0	497	
14	0	0	0	0	493	
15	0	0	0	0	501	
0	0	0	0	0	530	
1	0	0	0	0	542	
2	0	0	0	0	511	
3	0	0	0	0	512	
4	0	0	0	0	533	
5	0	0	0	0	533	
6	0	0	0	0	514	
7	0	0	0	0	514	
8	0	0	0	0	500	
9	0	0	0	0	507	
10	0	0	0	0	505	
11	0	0	0	0	505	
12	0	0	0	0	508	
13	0	0	0	0	494	
14	0	0	0	0	498	
15	0	0	0	0	514	
0	0	0	0	0	505	
1	0	0	0	0	506	
2	0	0	0	0	512	
3	0	0	0	0	515	
4	0	0	0	0	515	
5	0	0	0	0	515	
6	0	0	0	0	518	
7	0	0	0	0	518	
8	0	0	0	0	514	
9	0	0	0	0	517	
10	0	0	0	0	520	
11	0	0	0	0	504	
12	0	0	0	0	500	
13	0	0	0	0	509	
14	0	0	0	0	511	
15	0	0	0	0	502	
0	0	0	0	0	506	
1	0	0	0	0	507	
2	0	0	0	0	510	
3	0	0	0	0	511	
4	0	0	0	0	518	
5	0	0	0	0	524	
6	0	0	0	0	500	
7	0	0	0	0	500	
8	0	0	0	0	506	
9	0	0	0	0	509	
10	0	0	0	0	511	
11	0	0	0	0	507	
12	0	0	0	0	508	
13	0	0	0	0	503	
14	0	0	0	0	509	
15	0	0	0	0	519	
0	0	0	0	0	526	
1	0	0	0	0	520	
2	0	0	0	0	499	
3	0	0	0	0	476	
4	0	0	0	0	480	
5	0	0	0	0	495	
6	0	0	0	0	509	
7	0	0	0	0	534	
8	0	0	0	0	562	
9	0	0	0	0	572	
10	0	0	0	0	568	
11	0	0	0	0	544	
12	0	0	0	0	502	
13	0	0	0	0	488	
14	0	0	0	0	487	
15	0	0	0	0	492	
0	0	0	0	0	508	
1	0	0	0	0	521	
2	0	0	0	0	514	
3	0	0	0	0	497	
4	0	0	0	0	471	
5	0	0	0	0	486	
6	0	0	0	0	512	
7	0	0	0	0	511	
8	0	0	0	0	511	
9	0	0	0	0	521	
10	0	0	0	0	519	
11	0	0	0	0	515	
12	0	0	0	0	509	
13	0	0	0	0	510	
14	0	0	0	0	503	
15	0	0	0	0	517	
0	0	0	0	0	511	
1	0	0	0	0	512	
2	0	0	0	0	513	
3	0	0	0	0	511	
4	0	0	0	0	506	
5	0	0	0	0	504	
6	0	0	0	0	505	
7	0	0	0	0	504	
8	0	0	0	0	509	
9	0	0	0	0	522	
10	0	0	0	0	520	
11	0	0	0	0	515	
12	0	0	0	0	507	
13	0	0	0	0	505	
14	0	0	0	0	515	
15	0	0	0	0	517	
0	0	0	0	0	516	
1	0	0	0	0	510	
2	0	0	0	0	503	
3	0	0	0	0	503	
4	0	0	0	0	502	
5	0	0	0	0	507	
6	0	0	0	0	508	
7	0	0	0	0	505	
8	0	0	0	0	504	
9	0	0	0	0	522	
10	0	0	0	0	524	
11	0	0	0	0	534	
12	0	0	0	0	527	
13	0	0	0	0	507	
14	0	0	0	0	509	
15	0	0	0	0	511	
0	0	0	0	0	508	
1	0	0	0	0	514	
2	0	0	0	0	503	
3	0	0	0	0	508	
4	0	0	0	0	512	
5	0	0	0	0	515	
6	0	0	0	0	509	
7	0	0	0	0	496	
8	0	0	0	0	495	
9	0	0	0	0	515	
10	0	0	0	0	518	
11	0	0	0	0	511	
12	0	0	0	0	496	
13	0	0	0	0	508	
14	0	0	0	0	517	
15	0	0	0	0	507	
0	0	0	0	0	519	
1	0	0	0	0	534	
2	0	0	0	0	516	
3	0	0	0	0	508	
4	0	0	0	0	512	
5	0	0	0	0	493	
6	0	0	0	0	479	
7	0	0	0	0	477	
8	0	0	0	0	496	
9	0	0	0	0	532	
10	0	0	0	0	538	
11	0	0	0	0	552	
12	0	0	0	0	562	
13	0	0	0	0	536	
14	0	0	0	0	494	
15	0	0	0	0	494	
0	0	0	0	0	495	
1	0	0	0	0	513	
2	0	0	0	0	512	
3	0	0	0	0	500	
4	0	0	0	0	502	
5	0	0	0	0	506	
6	0	0	0	0	510	
7	0	0	0	0	517	
8	0	0	0	0	511	
9	0	0	0	0	511	
10	0	0	0	0	513	
11	0	0	0	0	508	
12	0	0	0	0	501	
13	0	0	0	0	496	
14	0	0	0	0	496	
15	0	0	0	0	497	
0	0	0	0	0	519	
1	0	0	0	0	535	
2	0	0	0	0	521	
3	0	0	0	0	513	
4	0	0	0	0	510	
5	0	0	0	0	508	
6	0	0	0	0	514	
7	0	0	0	0	520	
8	0	0	0	0	507	
9	0	0	0	0	506	
10	0	0	0	0	504	
11	0	0	0	0	504	
12	0	0	0	0	507	
13	0	0	0	0	511	
14	0	0	0	0	508	
15	0	0	0	0	504	
0	0	0	0	0	511	
1	0	0	0	0	510	
2	0	0	0	0	513	
3	0	0	0	0	514	
4	0	0	0	0	510	
5	0	0	0	0	512	
6	0	0	0	0	507	
7	0	0	0	0	504	
8	0	0	0	0	504	
9	0	0	0	0	511	
10	0	0	0	0	521	
11	0	0	0	0	529	
12	0	0	0	0	516	
13	0	0	0	0	518	
14	0	0	0	0	529	
15	0	0	0	0	524	
0	0	0	0	0	510	
1	0	0	0	0	498	
2	0	0	0	0	508	
3	0	0	0	0	509	
4	0	0	0	0	500	
5	0	0	0	0	496	
6	0	0	0	0	506	
7	0	0	0	0	504	
8	0	0	0	0	505	
9	0	0	0	0	520	
10	0	0	0	0	519	
11	0	0	0	0	521	
12	0	0	0	0	506	
13	0	0	0	0	499	
14	0	0	0	0	498	
15	0	0	0	0	499	
0	0	0	0	0	505	
1	0	0	0	0	507	
2	0	0	0	0	511	
3	0	0	0	0	496	
4	0	0	0	0	519	
5	0	0	0	0	510	
6	0	0	0	0	517	
7	0	0	0	0	534	
8	0	0	0	0	530	
9	0	0	0	0	524	
10	0	0	0	0	524	
11	0	0	0	0	526	
12	0	0	0	0	521	
13	0	0	0	0	512	
14	0	0	0	0	501	
15	0	0	0	0	494	
0	0	0	0	0	498	
1	0	0	0	0	511	
2	0	0	0	0	511	
3	0	0	0	0	507	
4	0	0	0	0	510	
5	0	0	0	0	509	
6	0	0	0	0	500	
7	0	0	0	0	497	
8	0	0	0	0	503	
9	0	0	0	0	509	
10	0	0	0	0	513	
11	0	0	0	0	516	
12	0	0	0	0	527	
13	0	0	0	0	520	
14	0	0	0	0	504	
15	0	0	0	0	499	
0	0	0	0	0	500	
1	0	0	0	0	510	
2	0	0	0	0	524	
3	0	0	0	0	526	
4	0	0	0	0	523	
5	0	0	0	0	519	
6	0	0	0	0	506	
7	0	0	0	0	504	
8	0	0	0	0	511	
9	0	0	0	0	511	
10	0	0	0	0	507	
11	0	0	0	0	505	
12	0	0	0	0	510	
13	0	0	0	0	504	
14	0	0	0	0	503	
15	0	0	0	0	506	
0	0	0	0	0	509	
1	0	0	0	0	514	
2	0	0	0	0	518	
3	0	0	0	0	522	
4	0	0	0	0	518	
5	0	0	0	0	516	
6	0	0	0	0	518	
7	0	0	0	0	515	
8	0	0	0	0	512	
9	0	0	0	0	513	
10	0	0	0	0	505	
11	0	0	0	0	501	
12	0	0	0	0	503	
13	0	0	0	0	507	
14	0	0	0	0	512	
15	0	0	0	0	505	
0	0	0	0	0	514	
1	0	0	0	0	511	
2	0	0	0	0	505	
3	0	0	0	0	511	
4	0	0	0	0	510	
5	0	0	0	0	513	
6	0	0	0	0	515	
7	0	0	0	0	512	
8	0	0	0	0	504	
9	0	0	0	0	501	
10	0	0	0	0	508	
11	0	0	0	0	514	
12	0	0	0	0	504	
13	0	0	0	0	507	
14	0	0	0	0	507	
15	0	0	0	0	511	
0	0	0	0	0	533	
1	0	0	0	0	522	
2	0	0	0	0	514	
3	0	0	0	0	507	
4	0	0	0	0	508	
5	0	0	0	0	523	
6	0	0	0	0	508	
7	0	0	0	0	508	
8	0	0	0	0	518	
9	0	0	0	0	507	
10	0	0	0	0	505	
11	0	0	0	0	506	
12	0	0	0	0	509	
13	0	0	0	0	517	
14	0	0	0	0	518	
15	0	0	0	0	511	
0	0	0	0	0	508	
1	0	0	0	0	507	
2	0	0	0	0	499	
3	0	0	0	0	503	
4	0	0	0	0	506	
5	0	0	0	0	511	
6	0	0	0	0	514	
7	0	0	0	0	515	
8	0	0	0	0	531	
9	0	0	0	0	516	
10	0	0	0	0	503	
11	0	0	0	0	501	
12	0	0	0	0	509	
13	0	0	0	0	515	
14	0	0	0	0	512	
15	0	0	0	0	508	
0	0	0	0	0	510	
1	0	0	0	0	513	
2	0	0	0	0	512	
3	0	0	0	0	519	
4	0	0	0	0	513	
5	0	0	0	0	503	
6	0	0	0	0	511	
7	0	0	0	0	526	
8	0	0	0	0	527	
9	0	0	0	0	522	
10	0	0	0	0	518	
11	0	0	0	0	509	
12	0	0	0	0	508	
13	0	0	0	0	506	
14	0	0	0	0	505	
15	0	0	0	0	502	
0	0	0	0	0	508	
1	0	0	0	0	526	
2	0	0	0	0	523	
3	0	0	0	0	510	
4	0	0	0	0	508	
5	0	0	0	0	496	
6	0	0	0	0	500	
7	0	0	0	0	499	
8	0	0	0	0	503	
9	0	0	0	0	505	
10	0	0	0	0	508	
11	0	0	0	0	511	
12	0	0	0	0	512	
13	0	0	0	0	513	
14	0	0	0	0	524	
15	0	0	0	0	522	
0	0	0	0	0	515	
1	0	0	0	0	508	
2	0	0	0	0	507	
3	0	0	0	0	507	
4	0	0	0	0	504	
5	0	0	0	0	510	
6	0	0	0	0	515	
7	0	0	0	0	513	
8	0	0	0	0	512	
9	0	0	0	0	507	
10	0	0	0	0	504	
11	0	0	0	0	510	
12	0	0	0	0	519	
13	0	0	0	0	511	
14	0	0	0	0	508	
15	0	0	0	0	511	
0	0	0	0	0	511	
1	0	0	0	0	511	
2	0	0	0	0	510	
3	0	0	0	0	508	
4	0	0	0	0	513	
5	0	0	0	0	507	
6	0	0	0	0	518	
7	0	0	0	0	510	
8	0	0	0	0	505	
9	0	0	0	0	504	
10	0	0	0	0	502	
11	0	0	0	0	504	
12	0	0	0	0	507	
13	0	0	0	0	512	
14	0	0	0	0	512	
15	0	0	0	0	518	
0	0	0	0	0	521	
1	0	0	0	0	512	
2	0	0	0	0	526	
3	0	0	0	0	534	
4	0	0	0	0	545	
5	0	0	0	0	517	
6	0	0	0	0	503	
7	0	0	0	0	501	
8	0	0	0	0	504	
9	0	0	0	0	501	
10	0	0	0	0	499	
11	0	0	0	0	507	
12	0	0	0	0	512	
13	0	0	0	0	517	
14	0	0	0	0	512	
15	0	0	0	0	504	
0	0	0	0	0	511	
1	0	0	0	0	502	
2	0	0	0	0	504	
3	0	0	0	0	505	
4	0	0	0	0	501	
5	0	0	0	0	494	
6	0	0	0	0	504	
7	0	0	0	0	521	
8	0	0	0	0	522	
9	0	0	0	0	518	
10	0	0	0	0	526	
11	0	0	0	0	542	
12	0	0	0	0	530	
13	0	0	0	0	515	
14	0	0	0	0	507	
15	0	0	0	0	501	
0	0	0	0	0	497	
1	0	0	0	0	499	
2	0	0	0	0	504	
3	0	0	0	0	516	
4	0	0	0	0	517	
5	0	0	0	0	510	
6	0	0	0	0	514	
7	0	0	0	0	510	
8	0	0	0	0	507	
9	0	0	0	0	510	
10	0	0	0	0	513	
11	0	0	0	0	511	
12	0	0	0	0	510	
13	0	0	0	0	505	
14	0	0	0	0	506	
15	0	0	0	0	508	
0	0	0	0	0	510	
1	0	0	0	0	511	
2	0	0	0	0	512	
3	0	0	0	0	511	
4	0	0	0	0	511	
5	0	0	0	0	510	
6	0	0	0	0	511	
7	0	0	0	0	504	
8	0	0	0	0	505	
9	0	0	0	0	513	
10	0	0	0	0	511	
11	0	0	0	0	514	
12	0	0	0	0	513	
13	0	0	0	0	510	
14	0	0	0	0	513	
15	0	0	0	0	513	
0	0	0	0	0	516	
1	0	0	0	0	516	
2	0	0	0	0	515	
3	0	0	0	0	508	
4	0	0	0	0	504	
5	0	0	0	0	516	
6	0	0	0	0	514	
7	0	0	0	0	510	
8	0	0	0	0	510	
9	0	0	0	0	508	
10	0	0	0	0	510	
11	0	0	0	0	512	
12	0	0	0	0	511	
13	0	0	0	0	506	
14	0	0	0	0	506	
15	0	0	0	0	508	
0	0	0	0	0	507	
1	0	0	0	0	508	
2	0	0	0	0	511	
3	0	0	0	0	515	
4	0	0	0	0	514	
5	0	0	0	0	518	
6	0	0	0	0	523	
7	0	0	0	0	519	
8	0	0	0	0	511	
9	0	0	0	0	507	
10	0	0	0	0	506	
11	0	0	0	0	509	
12	0	0	0	0	503	
13	0	0	0	0	510	
14	0	0	0	0	512	
15	0	0	0	0	512	
0	0	0	0	0	512	
1	0	0	0	0	511	
2	0	0	0	0	506	
3	0	0	0	0	507	
4	0	0	0	0	502	
5	0	0	0	0	501	
6	0	0	0	0	502	
7	0	0	0	0	504	
8	0	0	0	0	514	
9	0	0	0	0	528	
10	0	0	0	0	534	
11	0	0	0	0	527	
12	0	0	0	0	520	
13	0	0	0	0	519	
14	0	0	0	0	511	
15	0	0	0	0	502	
0	0	0	0	0	508	
1	0	0	0	0	509	
2	0	0	0	0	501	
3	0	0	0	0	509	
4	0	0	0	0	514	
5	0	0	0	0	505	
6	0	0	0	0	498	
7	0	0	0	0	497	
8	0	0	0	0	501	
9	0	0	0	0	507	
10	0	0	0	0	513	
11	0	0	0	0	518	
12	0	0	0	0	518	
13	0	0	0	0	518	
14	0	0	0	0	520	
15	0	0	0	0	530	
0	0	0	0	0	523	
1	0	0	0	0	508	
2	0	0	0	0	505	
3	0	0	0	0	511	
4	0	0	0	0	510	
5	0	0	0	0	514	
6	0	0	0	0	508	
7	0	0	0	0	508	
8	0	0	0	0	505	
9	0	0	0	0	505	
10	0	0	0	0	505	
11	0	0	0	0	510	
12	0	0	0	0	512	
13	0	0	0	0	510	
14	0	0	0	0	508	
15	0	0	0	0	508	
0	0	0	0	0	507	
1	0	0	0	0	512	
2	0	0	0	0	509	
3	0	0	0	0	516	
4	0	0	0	0	512	
5	0	0	0	0	512	
6	0	0	0	0	512	
7	0	0	0	0	515	
8	0	0	0	0	515	
9	0	0	0	0	513	
10	0	0	0	0	510	
11	0	0	0	0	512	
12	0	0	0	0	509	
13	0	0	0	0	507	
14	0	0	0	0	508	
15	0	0	0	0	508	
0	0	0	0	0	508	
1	0	0	0	0	508	
2	0	0	0	0	510	
3	0	0	0	0	510	
4	0	0	0	0	514	
5	0	0	0	0	519	
6	0	0	0	0	512	
7	0	0	0	0	511	
8	0	0	0	0	505	
9	0	0	0	0	508	
10	0	0	0	0	509	
11	0	0	0	0	510	
12	0	0	0	0	515	
13	0	0	0	0	510	
14	0	0	0	0	502	
15	0	0	0	0	507	
0	0	0	0	0	512	
1	0	0	0	0	520	
2	0	0	0	0	519	
3	0	0	0	0	518	
4	0	0	0	0	516	
5	0	0	0	0	518	
6	0	0	0	0	511	
7	0	0	0	0	504	
8	0	0	0	0	508	
9	0	0	0	0	507	
10	0	0	0	0	508	
11	0	0	0	0	508	
12	0	0	0	0	509	
13	0	0	0	0	510	
14	0	0	0	0	513	
15	0	0	0	0	511	
0	0	0	0	0	511	
1	0	0	0	0	506	
2	0	0	0	0	502	
3	0	0	0	0	507	
4	0	0	0	0	511	
5	0	0	0	0	507	
6	0	0	0	0	519	
7	0	0	0	0	523	
8	0	0	0	0	507	
9	0	0	0	0	496	
10	0	0	0	0	498	
11	0	0	0	0	510	
12	0	0	0	0	523	
13	0	0	0	0	527	
14	0	0	0	0	529	
15	0	0	0	0	524	
0	0	0	0	0	515	
1	0	0	0	0	512	
2	0	0	0	0	505	
3	0	0	0	0	497	
4	0	0	0	0	497	
5	0	0	0	0	507	
6	0	0	0	0	514	
7	0	0	0	0	515	
8	0	0	0	0	517	
9	0	0	0	0	513	
10	0	0	0	0	503	
11	0	0	0	0	495	
12	0	0	0	0	489	
13	0	0	0	0	494	
14	0	0	0	0	505	
15	0	0	0	0	512	
0	0	0	0	0	518	
1	0	0	0	0	535	
2	0	0	0	0	543	
3	0	0	0	0	537	
4	0	0	0	0	526	
5	0	0	0	0	511	
6	0	0	0	0	507	
7	0	0	0	0	503	
8	0	0	0	0	504	
9	0	0	0	0	510	
10	0	0	0	0	510	
11	0	0	0	0	505	
12	0	0	0	0	505	
13	0	0	0	0	507	
14	0	0	0	0	505	
15	0	0	0	0	506	
0	0	0	0	0	504	
1	0	0	0	0	505	
2	0	0	0	0	508	
3	0	0	0	0	510	
4	0	0	0	0	511	
5	0	0	0	0	510	
6	0	0	0	0	513	
7	0	0	0	0	511	
8	0	0	0	0	511	
9	0	0	0	0	511	
10	0	0	0	0	508	
11	0	0	0	0	510	
12	0	0	0	0	510	
13	0	0	0	0	512	
14	0	0	0	0	512	
15	0	0	0	0	513	
0	0	0	0	0	516	
1	0	0	0	0	518	
2	0	0	0	0	515	
3	0	0	0	0	513	
4	0	0	0	0	511	
5	0	0	0	0	508	
6	0	0	0	0	511	
7	0	0	0	0	518	
8	0	0	0	0	507	
9	0	0	0	0	510	
10	0	0	0	0	512	
11	0	0	0	0	508	
12	0	0	0	0	505	
13	0	0	0	0	506	
14	0	0	0	0	503	
15	0	0	0	0	499	
0	0	0	0	0	514	
1	0	0	0	0	511	
2	0	0	0	0	511	
3	0	0	0	0	518	
4	0	0	0	0	514	
5	0	0	0	0	517	
6	0	0	0	0	515	
7	0	0	0	0	519	
8	0	0	0	0	516	
9	0	0	0	0	512	
10	0	0	0	0	510	
11	0	0	0	0	508	
12	0	0	0	0	504	
13	0	0	0	0	508	
14	0	0	0	0	508	
15	0	0	0	0	507	
0	0	0	0	0	508	
1	0	0	0	0	512	
2	0	0	0	0	516	
3	0	0	0	0	515	
4	0	0	0	0	515	
5	0	0	0	0	510	
6	0	0	0	0	502	
7	0	0	0	0	496	
8	0	0	0	0	492	
9	0	0	0	0	504	
10	0	0	0	0	517	
11	0	0	0	0	518	
12	0	0	0	0	534	
13	0	0	0	0	540	
14	0	0	0	0	519	
15	0	0	0	0	500	
0	0	0	0	0	498	
1	0	0	0	0	503	
2	0	0	0	0	509	
3	0	0	0	0	516	
4	0	0	0	0	523	
5	0	0	0	0	524	
6	0	0	0	0	518	
7	0	0	0	0	513	
8	0	0	0	0	511	
9	0	0	0	0	507	
10	0	0	0	0	505	
11	0	0	0	0	506	
12	0	0	0	0	504	
13	0	0	0	0	502	
14	0	0	0	0	509	
15	0	0	0	0	508	
0	0	0	0	0	510	
1	0	0	0	0	512	
2	0	0	0	0	512	
3	0	0	0	0	515	
4	0	0	0	0	512	
5	0	0	0	0	510	
6	0	0	0	0	511	
7	0	0	0	0	511	
8	0	0	0	0	511	
9	0	0	0	0	507	
10	0	0	0	0	511	
11	0	0	0	0	513	
12	0	0	0	0	511	
13	0	0	0	0	511	
14	0	0	0	0	510	
15	0	0	0	0	510	
0	0	0	0	0	508	
1	0	0	0	0	508	
2	0	0	0	0	510	
3	0	0	0	0	512	
4	0	0	0	0	509	
5	0	0	0	0	503	
6	0	0	0	0	508	
7	0	0	0	0	511	
8	0	0	0	0	506	
9	0	0	0	0	507	
10	0	0	0	0	512	
11	0	0	0	0	518	
12	0	0	0	0	515	
13	0	0	0	0	514	
14	0	0	0	0	514	
15	0	0	0	0	514	
0	0	0	0	0	516	
1	0	0	0	0	516	
2	0	0	0	0	515	
3	0	0	0	0	515	
4	0	0	0	0	519	
5	0	0	0	0	516	
6	0	0	0	0	513	
7	0	0	0	0	510	
8	0	0	0	0	513	
9	0	0	0	0	513	
10	0	0	0	0	511	
11	0	0	0	0	506	
12	0	0	0	0	508	
13	0	0	0	0	510	
14	0	0	0	0	504	
15	0	0	0	0	505	
0	0	0	0	0	504	
1	0	0	0	0	506	
2	0	0	0	0	511	
3	0	0	0	0	509	
4	0	0	0	0	512	
5	0	0	0	0	510	
6	0	0	0	0	505	
7	0	0	0	0	504	
8	0	0	0	0	508	
9	0	0	0	0	506	
10	0	0	0	0	522	
11	0	0	0	0	523	
12	0	0	0	0	516	
13	0	0	0	0	501	
14	0	0	0	0	493	
15	0	0	0	0	491	
0	0	0	0	0	504	
1	0	0	0	0	513	
2	0	0	0	0	520	
3	0	0	0	0	531	
4	0	0	0	0	543	
5	0	0	0	0	538	
6	0	0	0	0	515	
7	0	0	0	0	504	
8	0	0	0	0	503	
9	0	0	0	0	500	
10	0	0	0	0	497	
11	0	0	0	0	503	
12	0	0	0	0	506	
13	0	0	0	0	512	
14	0	0	0	0	513	
15	0	0	0	0	514	
0	0	0	0	0	515	
1	0	0	0	0	510	
2	0	0	0	0	507	
3	0	0	0	0	505	
4	0	0	0	0	507	
5	0	0	0	0	509	
6	0	0	0	0	507	
7	0	0	0	0	508	
8	0	0	0	0	510	
9	0	0	0	0	510	
10	0	0	0	0	513	
11	0	0	0	0	521	
12	0	0	0	0	523	
13	0	0	0	0	513	
14	0	0	0	0	508	
15	0	0	0	0	504	
0	0	0	0	0	505	
1	0	0	0	0	511	
2	0	0	0	0	508	
3	0	0	0	0	508	
4	0	0	0	0	511	
5	0	0	0	0	514	
6	0	0	0	0	512	
7	0	0	0	0	508	
8	0	0	0	0	510	
9	0	0	0	0	515	
10	0	0	0	0	514	
11	0	0	0	0	512	
12	0	0	0	0	511	
13	0	0	0	0	511	
14	0	0	0	0	510	
15	0	0	0	0	509	
0	0	0	0	0	512	
1	0	0	0	0	513	
2	0	0	0	0	515	
3	0	0	0	0	516	
4	0	0	0	0	510	
5	0	0	0	0	503	
6	0	0	0	0	501	
7	0	0	0	0	501	
8	0	0	0	0	501	
9	0	0	0	0	503	
10	0	0	0	0	509	
11	0	0	0	0	511	
12	0	0	0	0	512	
13	0	0	0	0	515	
14	0	0	0	0	518	
15	0	0	0	0	517	
0	0	0	0	0	520	
1	0	0	0	0	525	
2	0	0	0	0	526	
3	0	0	0	0	525	
4	0	0	0	0	525	
5	0	0	0	0	516	
6	0	0	0	0	509	
7	0	0	0	0	507	
8	0	0	0	0	505	
9	0	0	0	0	503	
10	0	0	0	0	506	
11	0	0	0	0	510	
12	0	0	0	0	507	
13	0	0	0	0	505	
14	0	0	0	0	507	
15	0	0	0	0	508	
0	0	0	0	0	504	
1	0	0	0	0	502	
2	0	0	0	0	496	
3	0	0	0	0	500	
4	0	0	0	0	505	
5	0	0	0	0	508	
6	0	0	0	0	515	
7	0	0	0	0	525	
8	0	0	0	0	523	
9	0	0	0	0	519	
10	0	0	0	0	515	
11	0	0	0	0	510	
12	0	0	0	0	512	
13	0	0	0	0	515	
14	0	0	0	0	513	
15	0	0	0	0	509	
0	0	0	0	0	506	
1	0	0	0	0	511	
2	0	0	0	0	519	
3	0	0	0	0	520	
4	0	0	0	0	521	
5	0	0	0	0	511	
6	0	0	0	0	504	
7	0	0	0	0	507	
8	0	0	0	0	511	
9	0	0	0	0	517	
10	0	0	0	0	515	
11	0	0	0	0	508	
12	0	0	0	0	505	
13	0	0	0	0	504	
14	0	0	0	0	507	
15	0	0	0	0	508	
0	0	0	0	0	507	
1	0	0	0	0	509	
2	0	0	0	0	511	
3	0	0	0	0	512	
4	0	0	0	0	515	
5	0	0	0	0	515	
6	0	0	0	0	512	
7	0	0	0	0	508	
8	0	0	0	0	506	
9	0	0	0	0	508	
10	0	0	0	0	507	
11	0	0	0	0	505	
12	0	0	0	0	511	
13	0	0	0	0	508	
14	0	0	0	0	507	
15	0	0	0	0	509	
0	0	0	0	0	508	
1	0	0	0	0	507	
2	0	0	0	0	506	
3	0	0	0	0	508	
4	0	0	0	0	506	
5	0	0	0	0	512	
6	0	0	0	0	509	
7	0	0	0	0	510	
8	0	0	0	0	511	
9	0	0	0	0	512	
10	0	0	0	0	520	
11	0	0	0	0	532	
12	0	0	0	0	540	
13	0	0	0	0	537	
14	0	0	0	0	524	
15	0	0	0	0	516	
0	0	0	0	0	500	
1	0	0	0	0	499	
2	0	0	0	0	489	
3	0	0	0	0	487	
4	0	0	0	0	491	
5	0	0	0	0	489	
6	0	0	0	0	483	
7	0	0	0	0	485	
8	0	0	0	0	492	
9	0	0	0	0	497	
10	0	0	0	0	505	
11	0	0	0	0	521	
12	0	0	0	0	538	
13	0	0	0	0	538	
14	0	0	0	0	546	
15	0	0	0	0	560	
0	0	0	0	0	541	
1	0	0	0	0	529	
2	0	0	0	0	542	
3	0	0	0	0	572	
4	0	0	0	0	560	
5	0	0	0	0	521	
6	0	0	0	0	495	
7	0	0	0	0	480	
8	0	0	0	0	475	
9	0	0	0	0	477	
10	0	0	0	0	481	
11	0	0	0	0	483	
12	0	0	0	0	489	
13	0	0	0	0	496	
14	0	0	0	0	502	
15	0	0	0	0	509	
0	0	0	0	0	524	
1	0	0	0	0	528	
2	0	0	0	0	518	
3	0	0	0	0	504	
4	0	0	0	0	503	
5	0	0	0	0	501	
6	0	0	0	0	506	
7	0	0	0	0	507	
8	0	0	0	0	508	
9	0	0	0	0	504	
10	0	0	0	0	502	
11	0	0	0	0	502	
12	0	0	0	0	509	
13	0	0	0	0	519	
14	0	0	0	0	527	
15	0	0	0	0	522	
0	0	0	0	0	511	
1	0	0	0	0	508	
2	0	0	0	0	506	
3	0	0	0	0	504	
4	0	0	0	0	506	
5	0	0	0	0	508	
6	0	0	0	0	507	
7	0	0	0	0	510	
8	0	0	0	0	512	
9	0	0	0	0	519	
10	0	0	0	0	519	
11	0	0	0	0	519	
12	0	0	0	0	518	
13	0	0	0	0	515	
14	0	0	0	0	512	
15	0	0	0	0	508	
0	0	0	0	0	507	
1	0	0	0	0	505	
2	0	0	0	0	503	
3	0	0	0	0	507	
4	0	0	0	0	506	
5	0	0	0	0	504	
6	0	0	0	0	506	
7	0	0	0	0	512	
8	0	0	0	0	522	
9	0	0	0	0	516	
10	0	0	0	0	514	
11	0	0	0	0	514	
12	0	0	0	0	515	
13	0	0	0	0	517	
14	0	0	0	0	516	
15	0	0	0	0	521	
0	0	0	0	0	515	
1	0	0	0	0	511	
2	0	0	0	0	499	
3	0	0	0	0	494	
4	0	0	0	0	498	
5	0	0	0	0	493	
6	0	0	0	0	492	
7	0	0	0	0	495	
8	0	0	0	0	497	
9	0	0	0	0	505	
10	0	0	0	0	513	
11	0	0	0	0	522	
12	0	0	0	0	528	
13	0	0	0	0	526	
14	0	0	0	0	531	
15	0	0	0	0	536	
0	0	0	0	0	547	
1	0	0	0	0	540	
2	0	0	0	0	528	
3	0	0	0	0	536	
4	0	0	0	0	516	
5	0	0	0	0	491	
6	0	0	0	0	487	
7	0	0	0	0	491	
8	0	0	0	0	498	
9	0	0	0	0	499	
10	0	0	0	0	492	
11	0	0	0	0	489	
12	0	0	0	0	480	
13	0	0	0	0	491	
14	0	0	0	0	508	
15	0	0	0	0	511	
0	0	0	0	0	508	
1	0	0	0	0	516	
2	0	0	0	0	518	
3	0	0	0	0	531	
4	0	0	0	0	545	
5	0	0	0	0	543	
6	0	0	0	0	552	
7	0	0	0	0	547	
8	0	0	0	0	530	
9	0	0	0	0	513	
10	0	0	0	0	512	
11	0	0	0	0	495	
12	0	0	0	0	488	
13	0	0	0	0	491	
14	0	0	0	0	488	
15	0	0	0	0	483	
0	0	0	0	0	486	
1	0	0	0	0	485	
2	0	0	0	0	491	
3	0	0	0	0	497	
4	0	0	0	0	511	
5	0	0	0	0	525	
6	0	0	0	0	534	
7	0	0	0	0	532	
8	0	0	0	0	532	
9	0	0	0	0	525	
10	0	0	0	0	521	
11	0	0	0	0	513	
12	0	0	0	0	510	
13	0	0	0	0	506	
14	0	0	0	0	504	
15	0	0	0	0	503	
0	0	0	0	0	504	
1	0	0	0	0	500	
2	0	0	0	0	506	
3	0	0	0	0	515	
4	0	0	0	0	517	
5	0	0	0	0	515	
6	0	0	0	0	508	
7	0	0	0	0	508	
8	0	0	0	0	510	
9	0	0	0	0	507	
10	0	0	0	0	509	
11	0	0	0	0	508	
12	0	0	0	0	507	
13	0	0	0	0	507	
14	0	0	0	0	508	
15	0	0	0	0	511	
0	0	0	0	0	511	
1	0	0	0	0	510	
2	0	0	0	0	510	
3	0	0	0	0	510	
4	0	0	0	0	511	
5	0	0	0	0	512	
6	0	0	0	0	509	
7	0	0	0	0	508	
8	0	0	0	0	520	
9	0	0	0	0	514	
10	0	0	0	0	508	
11	0	0	0	0	510	
12	0	0	0	0	512	
13	0	0	0	0	505	
14	0	0	0	0	505	
15	0	0	0	0	510	
0	0	0	0	0	513	
1	0	0	0	0	510	
2	0	0	0	0	506	
3	0	0	0	0	504	
4	0	0	0	0	507	
5	0	0	0	0	516	
6	0	0	0	0	519	
7	0	0	0	0	513	
8	0	0	0	0	505	
9	0	0	0	0	504	
10	0	0	0	0	503	
11	0	0	0	0	500	
12	0	0	0	0	505	
13	0	0	0	0	515	
14	0	0	0	0	522	
15	0	0	0	0	534	
0	0	0	0	0	546	
1	0	0	0	0	538	
2	0	0	0	0	516	
3	0	0	0	0	501	
4	0	0	0	0	495	
5	0	0	0	0	511	
6	0	0	0	0	528	
7	0	0	0	0	527	
8	0	0	0	0	513	
9	0	0	0	0	500	
10	0	0	0	0	507	
11	0	0	0	0	514	
12	0	0	0	0	504	
13	0	0	0	0	504	
14	0	0	0	0	508	
15	0	0	0	0	502	
0	0	0	0	0	507	
1	0	0	0	0	507	
2	0	0	0	0	513	
3	0	0	0	0	511	
4	0	0	0	0	511	
5	0	0	0	0	517	
6	0	0	0	0	522	
7	0	0	0	0	518	
8	0	0	0	0	504	
9	0	0	0	0	494	
10	0	0	0	0	494	
11	0	0	0	0	497	
12	0	0	0	0	502	
13	0	0	0	0	506	
14	0	0	0	0	511	
15	0	0	0	0	518	
0	0	0	0	0	527	
1	0	0	0	0	532	
2	0	0	0	0	537	
3	0	0	0	0	530	
4	0	0	0	0	513	
5	0	0	0	0	496	
6	0	0	0	0	487	
7	0	0	0	0	491	
8	0	0	0	0	492	
9	0	0	0	0	497	
10	0	0	0	0	511	
11	0	0	0	0	521	
12	0	0	0	0	526	
13	0	0	0	0	513	
14	0	0	0	0	503	
15	0	0	0	0	507	
0	0	0	0	0	510	
1	0	0	0	0	513	
2	0	0	0	0	519	
3	0	0	0	0	527	
4	0	0	0	0	527	
5	0	0	0	0	525	
6	0	0	0	0	518	
7	0	0	0	0	517	
8	0	0	0	0	511	
9	0	0	0	0	504	
10	0	0	0	0	503	
11	0	0	0	0	499	
12	0	0	0	0	499	
13	0	0	0	0	497	
14	0	0	0	0	500	
15	0	0	0	0	501	
0	0	0	0	0	500	
1	0	0	0	0	498	
2	0	0	0	0	498	
3	0	0	0	0	500	
4	0	0	0	0	503	
5	0	0	0	0	507	
6	0	0	0	0	502	
7	0	0	0	0	519	
8	0	0	0	0	518	
9	0	0	0	0	500	
10	0	0	0	0	508	
11	0	0	0	0	513	
12	0	0	0	0	528	
13	0	0	0	0	524	
14	0	0	0	0	537	
15	0	0	0	0	546	
0	0	0	0	0	523	
1	0	0	0	0	524	
2	0	0	0	0	540	
3	0	0	0	0	540	
4	0	0	0	0	515	
5	0	0	0	0	495	
6	0	0	0	0	506	
7	0	0	0	0	505	
8	0	0	0	0	486	
9	0	0	0	0	473	
10	0	0	0	0	469	
11	0	0	0	0	472	
12	0	0	0	0	472	
13	0	0	0	0	487	
14	0	0	0	0	494	
15	0	0	0	0	505	
0	0	0	0	0	512	
1	0	0	0	0	511	
2	0	0	0	0	516	
3	0	0	0	0	527	
4	0	0	0	0	544	
5	0	0	0	0	563	
6	0	0	0	0	601	
7	0	0	0	0	615	
8	0	0	0	0	591	
9	0	0	0	0	541	
10	0	0	0	0	515	
11	0	0	0	0	507	
12	0	0	0	0	497	
13	0	0	0	0	491	
14	0	0	0	0	479	
15	0	0	0	0	463	
0	0	0	0	0	469	
1	0	0	0	0	474	
2	0	0	0	0	464	
3	0	0	0	0	460	
4	0	0	0	0	485	
5	0	0	0	0	515	
6	0	0	0	0	517	
7	0	0	0	0	510	
8	0	0	0	0	497	
9	0	0	0	0	508	
10	0	0	0	0	516	
11	0	0	0	0	518	
12	0	0	0	0	524	
13	0	0	0	0	552	
14	0	0	0	0	561	
15	0	0	0	0	553	
0	0	0	0	0	506	
1	0	0	0	0	491	
2	0	0	0	0	479	
3	0	0	0	0	480	
4	0	0	0	0	487	
5	0	0	0	0	502	
6	0	0	0	0	503	
7	0	0	0	0	497	
8	0	0	0	0	505	
9	0	0	0	0	508	
10	0	0	0	0	505	
11	0	0	0	0	503	
12	0	0	0	0	504	
13	0	0	0	0	504	
14	0	0	0	0	508	
15	0	0	0	0	519	
0	0	0	0	0	548	
1	0	0	0	0	562	
2	0	0	0	0	526	
3	0	0	0	0	504	
4	0	0	0	0	516	
5	0	0	0	0	523	
6	0	0	0	0	516	
7	0	0	0	0	502	
8	0	0	0	0	534	
9	0	0	0	0	536	
10	0	0	0	0	510	
11	0	0	0	0	501	
12	0	0	0	0	494	
13	0	0	0	0	504	
14	0	0	0	0	511	
15	0	0	0	0	484	
0	0	0	0	0	482	
1	0	0	0	0	487	
2	0	0	0	0	496	
3	0	0	0	0	496	
4	0	0	0	0	497	
5	0	0	0	0	498	
6	0	0	0	0	490	
7	0	0	0	0	484	
8	0	0	0	0	492	
9	0	0	0	0	515	
10	0	0	0	0	547	
11	0	0	0	0	539	
12	0	0	0	0	519	
13	0	0	0	0	519	
14	0	0	0	0	534	
15	0	0	0	0	586	
0	0	0	0	0	587	
1	0	0	0	0	550	
2	0	0	0	0	513	
3	0	0	0	0	493	
4	0	0	0	0	480	
5	0	0	0	0	498	
6	0	0	0	0	521	
7	0	0	0	0	556	
8	0	0	0	0	560	
9	0	0	0	0	496	
10	0	0	0	0	471	
11	0	0	0	0	464	
12	0	0	0	0	462	
13	0	0	0	0	482	
14	0	0	0	0	472	
15	0	0	0	0	422	
0	0	0	0	0	400	
1	0	0	0	0	396	
2	0	0	0	0	423	
3	0	0	0	0	462	
4	0	0	0	0	515	
5	0	0	0	0	554	
6	0	0	0	0	588	
7	0	0	0	0	621	
8	0	0	0	0	704	
9	0	0	0	0	776	
10	0	0	0	0	690	
11	0	0	0	0	632	
12	0	0	0	0	590	
13	0	0	0	0	479	
14	0	0	0	0	432	
15	0	0	0	0	462	
0	0	0	0	0	464	
1	0	0	0	0	436	
2	0	0	0	0	435	
3	0	0	0	0	455	
4	0	0	0	0	473	
5	0	0	0	0	462	
6	0	0	0	0	458	
7	0	0	0	0	458	
8	0	0	0	0	473	
9	0	0	0	0	475	
10	0	0	0	0	480	
11	0	0	0	0	508	
12	0	0	0	0	522	
13	0	0	0	0	497	
14	0	0	0	0	488	
15	0	0	0	0	467	
0	0	0	0	0	473	
1	0	0	0	0	555	
2	0	0	0	0	576	
3	0	0	0	0	583	
4	0	0	0	0	546	
5	0	0	0	0	557	
6	0	0	0	0	580	
7	0	0	0	0	534	
8	0	0	0	0	509	
9	0	0	0	0	495	
10	0	0	0	0	492	
11	0	0	0	0	478	
12	0	0	0	0	452	
13	0	0	0	0	447	
14	0	0	0	0	488	
15	0	0	0	0	524	
0	0	0	0	0	504	
1	0	0	0	0	560	
2	0	0	0	0	574	
3	0	0	0	0	510	
4	0	0	0	0	453	
5	0	0	0	0	496	
6	0	0	0	0	591	
7	0	0	0	0	551	
8	0	0	0	0	435	
9	0	0	0	0	412	
10	0	0	0	0	450	
11	0	0	0	0	486	
12	0	0	0	0	569	
13	0	0	0	0	575	
14	0	0	0	0	606	
15	0	0	0	0	520	
0	0	0	0	0	528	
1	0	0	0	0	524	
2	0	0	0	0	549	
3	0	0	0	0	550	
4	0	0	0	0	475	
5	0	0	0	0	426	
6	0	0	0	0	433	
7	0	0	0	0	445	
8	0	0	0	0	440	
9	0	0	0	0	399	
10	0	0	0	0	471	
11	0	0	0	0	490	
12	0	0	0	0	542	
13	0	0	0	0	774	
14	0	0	0	0	776	
15	0	0	0	0	651	
0	0	0	0	0	511	
1	0	0	0	0	441	
2	0	0	0	0	401	
3	0	0	0	0	423	
4	0	0	0	0	491	
5	0	0	0	0	461	
6	0	0	0	0	484	
7	0	0	0	0	524	
8	0	0	0	0	548	
9	0	0	0	0	524	
10	0	0	0	0	489	
11	0	0	0	0	473	
12	0	0	0	0	527	
13	0	0	0	0	452	
14	0	0	0	0	443	
15	0	0	0	0	512	
0	0	0	0	0	569	
1	0	0	0	0	477	
2	0	0	0	0	485	
3	0	0	0	0	526	
4	0	0	0	0	486	
5	0	0	0	0	575	
6	0	0	0	0	509	
7	0	0	0	0	522	
8	0	0	0	0	622	
9	0	0	0	0	600	
10	0	0	0	0	423	
11	0	0	0	0	409	
12	0	0	0	0	458	
13	0	0	0	0	540	
14	0	0	0	0	619	
15	0	0	0	0	630	
0	0	0	0	0	600	
1	0	0	0	0	547	
2	0	0	0	0	487	
3	0	0	0	0	507	
4	0	0	0	0	499	
5	0	0	0	0	453	
6	0	0	0	0	443	
7	0	0	0	0	422	
8	0	0	0	0	465	
9	0	0	0	0	507	
10	0	0	0	0	510	
11	0	0	0	0	510	
12	0	0	0	0	440	
13	0	0	0	0	416	
14	0	0	0	0	438	
15	0	0	0	0	535	
0	0	0	0	0	546	
1	0	0	0	0	480	
2	0	0	0	0	551	
3	0	0	0	0	639	
4	0	0	0	0	495	
5	0	0	0	0	490	
6	0	0	0	0	511	
7	0	0	0	0	500	
8	0	0	0	0	508	
9	0	0	0	0	537	
10	0	0	0	0	511	
11	0	0	0	0	509	
12	0	0	0	0	473	
13	0	0	0	0	518	
14	0	0	0	0	550	
15	0	0	0	0	409	
0	0	0	0	0	422	
1	0	0	0	0	548	
2	0	0	0	0	706	
3	0	0	0	0	851	
4	0	0	0	0	783	
5	0	0	0	0	717	
6	0	0	0	0	594	
7	0	0	0	0	495	
8	0	0	0	0	446	
9	0	0	0	0	348	
10	0	0	0	0	350	
11	0	0	0	0	364	
12	0	0	0	0	377	
13	0	0	0	0	371	
14	0	0	0	0	402	
15	0	0	0	0	392	
0	0	0	0	0	425	
1	0	0	0	0	457	
2	0	0	0	0	502	
3	0	0	0	0	613	
4	0	0	0	0	659	
5	0	0	0	0	620	
6	0	0	0	0	600	
7	0	0	0	0	444	
8	0	0	0	0	408	
9	0	0	0	0	351	
10	0	0	0	0	229	
11	0	0	0	0	395	
12	0	0	0	0	611	
13	0	0	0	0	583	
14	0	0	0	0	679	
15	0	0	0	0	703	
0	0	0	0	0	791	
1	0	0	0	0	669	
2	0	0	0	0	609	
3	0	0	0	0	513	
4	0	0	0	0	388	
5	0	0	0	0	325	
6	0	0	0	0	383	
7	0	0	0	0	442	
8	0	0	0	0	516	
9	0	0	0	0	477	
10	0	0	0	0	487	
11	0	0	0	0	604	
12	0	0	0	0	617	
13	0	0	0	0	571	
14	0	0	0	0	543	
15	0	0	0	0	535	
0	0	0	0	0	489	
1	0	0	0	0	441	
2	0	0	0	0	339	
3	0	0	0	0	356	
4	0	0	0	0	340	
5	0	0	0	0	398	
6	0	0	0	0	498	
7	0	0	0	0	631	
8	0	0	0	0	688	
9	0	0	0	0	677	
10	0	0	0	0	803	
11	0	0	0	0	698	
12	0	0	0	0	638	
13	0	0	0	0	534	
14	0	0	0	0	350	
15	0	0	0	0	314	
0	0	0	0	0	349	
1	0	0	0	0	408	
2	0	0	0	0	459	
3	0	0	0	0	505	
4	0	0	0	0	524	
5	0	0	0	0	542	
6	0	0	0	0	508	
7	0	0	0	0	471	
8	0	0	0	0	539	
9	0	0	0	0	543	
10	0	0	0	0	582	
11	0	0	0	0	544	
12	0	0	0	0	499	
13	0	0	0	0	431	
14	0	0	0	0	440	
15	0	0	0	0	418	
0	0	0	0	0	450	
1	0	0	0	0	476	
2	0	0	0	0	439	
3	0	0	0	0	434	
4	0	0	0	0	536	
5	0	0	0	0	634	
6	0	0	0	0	593	
7	0	0	0	0	604	
8	0	0	0	0	724	
9	0	0	0	0	711	
10	0	0	0	0	508	
11	0	0	0	0	468	
12	0	0	0	0	502	
13	0	0	0	0	469	
14	0	0	0	0	433	
15	0	0	0	0	529	
0	0	0	0	0	520	
1	0	0	0	0	412	
2	0	0	0	0	403	
3	0	0	0	0	443	
4	0	0	0	0	529	
5	0	0	0	0	542	
6	0	0	0	0	460	
7	0	0	0	0	514	
8	0	0	0	0	502	
9	0	0	0	0	452	
10	0	0	0	0	349	
11	0	0	0	0	359	
12	0	0	0	0	450	
13	0	0	0	0	536	
14	0	0	0	0	664	
15	0	0	0	0	750	
0	0	0	0	0	806	
1	0	0	0	0	769	
2	0	0	0	0	543	
3	0	0	0	0	419	
4	0	0	0	0	494	
5	0	0	0	0	611	
6	0	0	0	0	603	
7	0	0	0	0	564	
8	0	0	0	0	510	
9	0	0	0	0	442	
10	0	0	0	0	387	
11	0	0	0	0	365	
12	0	0	0	0	359	
13	0	0	0	0	388	
14	0	0	0	0	366	
15	0	0	0	0	406	
0	0	0	0	0	432	
1	0	0	0	0	499	
2	0	0	0	0	522	
3	0	0	0	0	529	
4	0	0	0	0	558	
5	0	0	0	0	610	
6	0	0	0	0	516	
7	0	0	0	0	452	
8	0	0	0	0	514	
9	0	0	0	0	545	
10	0	0	0	0	594	
11	0	0	0	0	622	
12	0	0	0	0	624	
13	0	0	0	0	560	
14	0	0	0	0	485	
15	0	0	0	0	423	
0	0	0	0	0	428	
1	0	0	0	0	366	
2	0	0	0	0	396	
3	0	0	0	0	324	
4	0	0	0	0	356	
5	0	0	0	0	627	
6	0	0	0	0	715	
7	0	0	0	0	678	
8	0	0	0	0	608	
9	0	0	0	0	637	
10	0	0	0	0	785	
11	0	0	0	0	670	
12	0	0	0	0	599	
13	0	0	0	0	495	
14	0	0	0	0	451	
15	0	0	0	0	481	
0	0	0	0	0	447	
1	0	0	0	0	425	
2	0	0	0	0	415	
3	0	0	0	0	425	
4	0	0	0	0	445	
5	0	0	0	0	471	
6	0	0	0	0	514	
7	0	0	0	0	518	
8	0	0	0	0	455	
9	0	0	0	0	413	
10	0	0	0	0	423	
11	0	0	0	0	421	
12	0	0	0	0	399	
13	0	0	0	0	385	
14	0	0	0	0	356	
15	0	0	0	0	351	
0	0	0	0	0	491	
1	0	0	0	0	626	
2	0	0	0	0	668	
3	0	0	0	0	690	
4	0	0	0	0	639	
5	0	0	0	0	655	
6	0	0	0	0	695	
7	0	0	0	0	677	
8	0	0	0	0	616	
9	0	0	0	0	589	
10	0	0	0	0	553	
11	0	0	0	0	490	
12	0	0	0	0	534	
13	0	0	0	0	658	
14	0	0	0	0	502	
15	0	0	0	0	358	
0	0	0	0	0	331	
1	0	0	0	0	393	
2	0	0	0	0	433	
3	0	0	0	0	475	
4	0	0	0	0	451	
5	0	0	0	0	479	
6	0	0	0	0	567	
7	0	0	0	0	632	
8	0	0	0	0	568	
9	0	0	0	0	494	
10	0	0	0	0	470	
11	0	0	0	0	440	
12	0	0	0	0	457	
13	0	0	0	0	449	
14	0	0	0	0	456	
15	0	0	0	0	452	
0	0	0	0	0	470	
1	0	0	0	0	491	
2	0	0	0	0	473	
3	0	0	0	0	490	
4	0	0	0	0	495	
5	0	0	0	0	572	
6	0	0	0	0	575	
7	0	0	0	0	508	
8	0	0	0	0	464	
9	0	0	0	0	413	
10	0	0	0	0	276	
11	0	0	0	0	233	
12	0	0	0	0	231	
13	0	0	0	0	463	
14	0	0	0	0	884	
15	0	0	0	0	1022	
0	0	0	0	0	975	
1	0	0	0	0	737	
2	0	0	0	0	784	
3	0	0	0	0	850	
4	0	0	0	0	621	
5	0	0	0	0	456	
6	0	0	0	0	357	
7	0	0	0	0	365	
8	0	0	0	0	371	
9	0	0	0	0	328	
10	0	0	0	0	310	
11	0	0	0	0	357	
12	0	0	0	0	368	
13	0	0	0	0	348	
14	0	0	0	0	356	
15	0	0	0	0	336	
0	0	0	0	0	389	
1	0	0	0	0	526	
2	0	0	0	0	527	
3	0	0	0	0	488	
4	0	0	0	0	647	
5	0	0	0	0	793	
6	0	0	0	0	875	
7	0	0	0	0	868	
8	0	0	0	0	652	
9	0	0	0	0	479	
10	0	0	0	0	417	
11	0	0	0	0	392	
12	0	0	0	0	384	
13	0	0	0	0	422	
14	0	0	0	0	431	
15	0	0	0	0	439	
0	0	0	0	0	453	
1	0	0	0	0	467	
2	0	0	0	0	496	
3	0	0	0	0	477	
4	0	0	0	0	457	
5	0	0	0	0	445	
6	0	0	0	0	462	
7	0	0	0	0	480	
8	0	0	0	0	500	
9	0	0	0	0	487	
10	0	0	0	0	475	
11	0	0	0	0	439	
12	0	0	0	0	480	
13	0	0	0	0	561	
14	0	0	0	0	623	
15	0	0	0	0	619	
0	0	0	0	0	601	
1	0	0	0	0	632	
2	0	0	0	0	652	
3	0	0	0	0	565	
4	0	0	0	0	481	
5	0	0	0	0	406	
6	0	0	0	0	419	
7	0	0	0	0	479	
8	0	0	0	0	537	
9	0	0	0	0	609	
10	0	0	0	0	596	
11	0	0	0	0	601	
12	0	0	0	0	601	
13	0	0	0	0	483	
14	0	0	0	0	455	
15	0	0	0	0	471	
0	0	0	0	0	485	
1	0	0	0	0	479	
2	0	0	0	0	463	
3	0	0	0	0	458	
4	0	0	0	0	483	
5	0	0	0	0	486	
6	0	0	0	0	490	
7	0	0	0	0	504	
8	0	0	0	0	487	
9	0	0	0	0	483	
10	0	0	0	0	466	
11	0	0	0	0	478	
12	0	0	0	0	523	
13	0	0	0	0	506	
14	0	0	0	0	481	
15	0	0	0	0	470	
0	0	0	0	0	417	
1	0	0	0	0	419	
2	0	0	0	0	383	
3	0	0	0	0	320	
4	0	0	0	0	342	
5	0	0	0	0	480	
6	0	0	0	0	630	
7	0	0	0	0	756	
8	0	0	0	0	801	
9	0	0	0	0	733	
10	0	0	0	0	691	
11	0	0	0	0	711	
12	0	0	0	0	808	
13	0	0	0	0	764	
14	0	0	0	0	632	
15	0	0	0	0	506	
0	0	0	0	0	429	
1	0	0	0	0	369	
2	0	0	0	0	360	
3	0	0	0	0	351	
4	0	0	0	0	348	
5	0	0	0	0	386	
6	0	0	0	0	377	
7	0	0	0	0	363	
8	0	0	0	0	405	
9	0	0	0	0	353	
10	0	0	0	0	374	
11	0	0	0	0	383	
12	0	0	0	0	359	
13	0	0	0	0	551	
14	0	0	0	0	670	
15	0	0	0	0	574	
0	0	0	0	0	540	
1	0	0	0	0	632	
2	0	0	0	0	772	
3	0	0	0	0	824	
4	0	0	0	0	721	
5	0	0	0	0	602	
6	0	0	0	0	526	
7	0	0	0	0	415	
8	0	0	0	0	341	
9	0	0	0	0	337	
10	0	0	0	0	392	
11	0	0	0	0	503	
12	0	0	0	0	590	
13	0	0	0	0	590	
14	0	0	0	0	543	
15	0	0	0	0	539	
0	0	0	0	0	520	
1	0	0	0	0	505	
2	0	0	0	0	493	
3	0	0	0	0	487	
4	0	0	0	0	475	
5	0	0	0	0	476	
6	0	0	0	0	484	
7	0	0	0	0	475	
8	0	0	0	0	471	
9	0	0	0	0	477	
10	0	0	0	0	475	
11	0	0	0	0	431	
12	0	0	0	0	429	
13	0	0	0	0	433	
14	0	0	0	0	440	
15	0	0	0	0	440	
0	0	0	0	0	505	
1	0	0	0	0	576	
2	0	0	0	0	643	
3	0	0	0	0	660	
4	0	0	0	0	629	
5	0	0	0	0	627	
6	0	0	0	0	625	
7	0	0	0	0	571	
8	0	0	0	0	515	
9	0	0	0	0	501	
10	0	0	0	0	488	
11	0	0	0	0	469	
12	0	0	0	0	461	
13	0	0	0	0	474	
14	0	0	0	0	483	
15	0	0	0	0	485	
0	0	0	0	0	488	
1	0	0	0	0	490	
2	0	0	0	0	487	
3	0	0	0	0	471	
4	0	0	0	0	415	
5	0	0	0	0	352	
6	0	0	0	0	326	
7	0	0	0	0	328	
8	0	0	0	0	367	
9	0	0	0	0	464	
10	0	0	0	0	631	
11	0	0	0	0	758	
12	0	0	0	0	792	
13	0	0	0	0	770	
14	0	0	0	0	702	
15	0	0	0	0	659	
0	0	0	0	0	624	
1	0	0	0	0	574	
2	0	0	0	0	513	
3	0	0	0	0	446	
4	0	0	0	0	416	
5	0	0	0	0	423	
6	0	0	0	0	444	
7	0	0	0	0	453	
8	0	0	0	0	474	
9	0	0	0	0	464	
10	0	0	0	0	480	
11	0	0	0	0	502	
12	0	0	0	0	492	
13	0	0	0	0	496	
14	0	0	0	0	490	
15	0	0	0	0	487	
0	0	0	0	0	483	
1	0	0	0	0	438	
2	0	0	0	0	384	
3	0	0	0	0	341	
4	0	0	0	0	323	
5	0	0	0	0	329	
6	0	0	0	0	396	
7	0	0	0	0	562	
8	0	0	0	0	661	
9	0	0	0	0	790	
10	0	0	0	0	830	
11	0	0	0	0	816	
12	0	0	0	0	755	
13	0	0	0	0	630	
14	0	0	0	0	517	
15	0	0	0	0	461	
0	0	0	0	0	443	
1	0	0	0	0	450	
2	0	0	0	0	466	
3	0	0	0	0	452	
4	0	0	0	0	433	
5	0	0	0	0	440	
6	0	0	0	0	438	
7	0	0	0	0	436	
8	0	0	0	0	438	
9	0	0	0	0	456	
10	0	0	0	0	455	
11	0	0	0	0	473	
12	0	0	0	0	480	
13	0	0	0	0	468	
14	0	0	0	0	492	
15	0	0	0	0	543	
0	0	0	0	0	574	
1	0	0	0	0	617	
2	0	0	0	0	575	
3	0	0	0	0	566	
4	0	0	0	0	570	
5	0	0	0	0	581	
6	0	0	0	0	550	
7	0	0	0	0	525	
8	0	0	0	0	492	
9	0	0	0	0	483	
10	0	0	0	0	467	
11	0	0	0	0	451	
12	0	0	0	0	468	
13	0	0	0	0	508	
14	0	0	0	0	497	
15	0	0	0	0	483	
0	0	0	0	0	467	
1	0	0	0	0	439	
2	0	0	0	0	469	
3	0	0	0	0	529	
4	0	0	0	0	564	
5	0	0	0	0	567	
6	0	0	0	0	547	
7	0	0	0	0	539	
8	0	0	0	0	556	
9	0	0	0	0	531	
10	0	0	0	0	512	
11	0	0	0	0	525	
12	0	0	0	0	508	
13	0	0	0	0	483	
14	0	0	0	0	492	
15	0	0	0	0	487	
0	0	0	0	0	505	
1	0	0	0	0	524	
2	0	0	0	0	508	
3	0	0	0	0	495	
4	0	0	0	0	498	
5	0	0	0	0	504	
6	0	0	0	0	517	
7	0	0	0	0	512	
8	0	0	0	0	494	
9	0	0	0	0	494	
10	0	0	0	0	504	
11	0	0	0	0	505	
12	0	0	0	0	513	
13	0	0	0	0	538	
14	0	0	0	0	562	
15	0	0	0	0	535	
0	0	0	0	0	507	
1	0	0	0	0	516	
2	0	0	0	0	499	
3	0	0	0	0	482	
4	0	0	0	0	493	
5	0	0	0	0	501	
6	0	0	0	0	500	
7	0	0	0	0	493	
8	0	0	0	0	484	
9	0	0	0	0	480	
10	0	0	0	0	472	
11	0	0	0	0	464	
12	0	0	0	0	469	
13	0	0	0	0	516	
14	0	0	0	0	584	
15	0	0	0	0	624	
0	0	0	0	0	604	
1	0	0	0	0	560	
2	0	0	0	0	526	
3	0	0	0	0	508	
4	0	0	0	0	495	
5	0	0	0	0	488	
6	0	0	0	0	487	
7	0	0	0	0	486	
8	0	0	0	0	484	
9	0	0	0	0	494	
10	0	0	0	0	510	
11	0	0	0	0	521	
12	0	0	0	0	523	
13	0	0	0	0	496	
14	0	0	0	0	492	
15	0	0	0	0	493	
0	0	0	0	0	498	
1	0	0	0	0	503	
2	0	0	0	0	515	
3	0	0	0	0	512	
4	0	0	0	0	509	
5	0	0	0	0	516	
6	0	0	0	0	510	
7	0	0	0	0	509	
8	0	0	0	0	517	
9	0	0	0	0	518	
10	0	0	0	0	510	
11	0	0	0	0	521	
12	0	0	0	0	528	
13	0	0	0	0	535	
14	0	0	0	0	527	
15	0	0	0	0	508	
0	0	0	0	0	513	
1	0	0	0	0	518	
2	0	0	0	0	515	
3	0	0	0	0	506	
4	0	0	0	0	504	
5	0	0	0	0	501	
6	0	0	0	0	505	
7	0	0	0	0	507	
8	0	0	0	0	516	
9	0	0	0	0	516	
10	0	0	0	0	510	
11	0	0	0	0	496	
12	0	0	0	0	480	
13	0	0	0	0	459	
14	0	0	0	0	450	
15	0	0	0	0	476	
0	0	0	0	0	506	
1	0	0	0	0	521	
2	0	0	0	0	537	
3	0	0	0	0	591	
4	0	0	0	0	600	
5	0	0	0	0	562	
6	0	0	0	0	524	
7	0	0	0	0	513	
8	0	0	0	0	502	
9	0	0	0	0	500	
10	0	0	0	0	504	
11	0	0	0	0	499	
12	0	0	0	0	511	
13	0	0	0	0	518	
14	0	0	0	0	504	
15	0	0	0	0	496	
0	0	0	0	0	496	
1	0	0	0	0	510	
2	0	0	0	0	508	
3	0	0	0	0	496	
4	0	0	0	0	484	
5	0	0	0	0	480	
6	0	0	0	0	487	
7	0	0	0	0	481	
8	0	0	0	0	478	
9	0	0	0	0	500	
10	0	0	0	0	503	
11	0	0	0	0	485	
12	0	0	0	0	507	
13	0	0	0	0	551	
14	0	0	0	0	587	
15	0	0	0	0	568	
0	0	0	0	0	540	
1	0	0	0	0	543	
2	0	0	0	0	575	
3	0	0	0	0	560	
4	0	0	0	0	524	
5	0	0	0	0	507	
6	0	0	0	0	489	
7	0	0	0	0	493	
8	0	0	0	0	488	
9	0	0	0	0	487	
10	0	0	0	0	487	
11	0	0	0	0	483	
12	0	0	0	0	483	
13	0	0	0	0	485	
14	0	0	0	0	484	
15	0	0	0	0	484	
0	0	0	0	0	497	
1	0	0	0	0	502	
2	0	0	0	0	502	
3	0	0	0	0	524	
4	0	0	0	0	552	
5	0	0	0	0	540	
6	0	0	0	0	526	
7	0	0	0	0	515	
8	0	0	0	0	526	
9	0	0	0	0	519	
10	0	0	0	0	515	
11	0	0	0	0	517	
12	0	0	0	0	509	
13	0	0	0	0	485	
14	0	0	0	0	483	
15	0	0	0	0	499	
0	0	0	0	0	505	
1	0	0	0	0	519	
2	0	0	0	0	527	
3	0	0	0	0	545	
4	0	0	0	0	542	
5	0	0	0	0	517	
6	0	0	0	0	498	
7	0	0	0	0	496	
8	0	0	0	0	494	
9	0	0	0	0	504	
10	0	0	0	0	508	
11	0	0	0	0	491	
12	0	0	0	0	497	
13	0	0	0	0	524	
14	0	0	0	0	521	
15	0	0	0	0	504	
0	0	0	0	0	481	
1	0	0	0	0	488	
2	0	0	0	0	475	
3	0	0	0	0	472	
4	0	0	0	0	480	
5	0	0	0	0	514	
6	0	0	0	0	556	
7	0	0	0	0	561	
8	0	0	0	0	585	
9	0	0	0	0	600	
10	0	0	0	0	560	
11	0	0	0	0	518	
12	0	0	0	0	488	
13	0	0	0	0	502	
14	0	0	0	0	508	
15	0	0	0	0	494	
0	0	0	0	0	486	
1	0	0	0	0	488	
2	0	0	0	0	502	
3	0	0	0	0	498	
4	0	0	0	0	497	
5	0	0	0	0	493	
6	0	0	0	0	499	
7	0	0	0	0	505	
8	0	0	0	0	511	
9	0	0	0	0	502	
10	0	0	0	0	505	
11	0	0	0	0	509	
12	0	0	0	0	518	
13	0	0	0	0	519	
14	0	0	0	0	516	
15	0	0	0	0	523	
0	0	0	0	0	525	
1	0	0	0	0	514	
2	0	0	0	0	494	
3	0	0	0	0	497	
4	0	0	0	0	496	
5	0	0	0	0	478	
6	0	0	0	0	471	
7	0	0	0	0	488	
8	0	0	0	0	514	
9	0	0	0	0	547	
10	0	0	0	0	565	
11	0	0	0	0	559	
12	0	0	0	0	547	
13	0	0	0	0	527	
14	0	0	0	0	508	
15	0	0	0	0	513	
0	0	0	0	0	510	
1	0	0	0	0	504	
2	0	0	0	0	505	
3	0	0	0	0	504	
4	0	0	0	0	499	
5	0	0	0	0	494	
6	0	0	0	0	494	
7	0	0	0	0	503	
8	0	0	0	0	513	
9	0	0	0	0	511	
10	0	0	0	0	509	
11	0	0	0	0	504	
12	0	0	0	0	496	
13	0	0	0	0	505	
14	0	0	0	0	508	
15	0	0	0	0	508	
0	0	0	0	0	499	
1	0	0	0	0	530	
2	0	0	0	0	526	
3	0	0	0	0	519	
4	0	0	0	0	519	
5	0	0	0	0	505	
6	0	0	0	0	496	
7	0	0	0	0	500	
8	0	0	0	0	509	
9	0	0	0	0	518	
10	0	0	0	0	535	
11	0	0	0	0	548	
12	0	0	0	0	535	
13	0	0	0	0	509	
14	0	0	0	0	488	
15	0	0	0	0	486	
0	0	0	0	0	503	
1	0	0	0	0	513	
2	0	0	0	0	521	
3	0	0	0	0	513	
4	0	0	0	0	512	
5	0	0	0	0	504	
6	0	0	0	0	512	
7	0	0	0	0	525	
8	0	0	0	0	505	
9	0	0	0	0	499	
10	0	0	0	0	501	
11	0	0	0	0	481	
12	0	0	0	0	498	
13	0	0	0	0	515	
14	0	0	0	0	526	
15	0	0	0	0	531	
0	0	0	0	0	527	
1	0	0	0	0	510	
2	0	0	0	0	514	
3	0	0	0	0	492	
4	0	0	0	0	494	
5	0	0	0	0	494	
6	0	0	0	0	503	
7	0	0	0	0	517	
8	0	0	0	0	514	
9	0	0	0	0	506	
10	0	0	0	0	514	
11	0	0	0	0	547	
12	0	0	0	0	531	
13	0	0	0	0	515	
14	0	0	0	0	496	
15	0	0	0	0	510	
0	0	0	0	0	537	
1	0	0	0	0	526	
2	0	0	0	0	511	
3	0	0	0	0	502	
4	0	0	0	0	501	
5	0	0	0	0	508	
6	0	0	0	0	507	
7	0	0	0	0	503	
8	0	0	0	0	506	
9	0	0	0	0	505	
10	0	0	0	0	507	
11	0	0	0	0	508	
12	0	0	0	0	503	
13	0	0	0	0	494	
14	0	0	0	0	497	
15	0	0	0	0	492	
0	0	0	0	0	481	
1	0	0	0	0	475	
2	0	0	0	0	483	
3	0	0	0	0	509	
4	0	0	0	0	541	
5	0	0	0	0	572	
6	0	0	0	0	583	
7	0	0	0	0	576	
8	0	0	0	0	556	
9	0	0	0	0	529	
10	0	0	0	0	501	
11	0	0	0	0	496	
12	0	0	0	0	487	
13	0	0	0	0	489	
14	0	0	0	0	508	
15	0	0	0	0	495	
0	0	0	0	0	488	
1	0	0	0	0	499	
2	0	0	0	0	503	
3	0	0	0	0	499	
4	0	0	0	0	514	
5	0	0	0	0	520	
6	0	0	0	0	508	
7	0	0	0	0	508	
8	0	0	0	0	502	
9	0	0	0	0	495	
10	0	0	0	0	497	
11	0	0	0	0	502	
12	0	0	0	0	509	
13	0	0	0	0	523	
14	0	0	0	0	526	
15	0	0	0	0	515	
0	0	0	0	0	523	
1	0	0	0	0	535	
2	0	0	0	0	519	
3	0	0	0	0	509	
4	0	0	0	0	510	
5	0	0	0	0	505	
6	0	0	0	0	484	
7	0	0	0	0	492	
8	0	0	0	0	509	
9	0	0	0	0	501	
10	0	0	0	0	508	
11	0	0	0	0	527	
12	0	0	0	0	535	
13	0	0	0	0	523	
14	0	0	0	0	510	
15	0	0	0	0	511	
0	0	0	0	0	509	
1	0	0	0	0	510	
2	0	0	0	0	505	
3	0	0	0	0	504	
4	0	0	0	0	519	
5	0	0	0	0	515	
6	0	0	0	0	511	
7	0	0	0	0	510	
8	0	0	0	0	500	
9	0	0	0	0	502	
10	0	0	0	0	501	
11	0	0	0	0	502	
12	0	0	0	0	512	
13	0	0	0	0	504	
14	0	0	0	0	496	
15	0	0	0	0	506	
0	0	0	0	0	513	
1	0	0	0	0	508	
2	0	0	0	0	515	
3	0	0	0	0	542	
4	0	0	0	0	577	
5	0	0	0	0	574	
6	0	0	0	0	528	
7	0	0	0	0	505	
8	0	0	0	0	487	
9	0	0	0	0	486	
10	0	0	0	0	484	
11	0	0	0	0	491	
12	0	0	0	0	504	
13	0	0	0	0	496	
14	0	0	0	0	494	
15	0	0	0	0	504	
0	0	0	0	0	512	
1	0	0	0	0	521	
2	0	0	0	0	524	
3	0	0	0	0	518	
4	0	0	0	0	504	
5	0	0	0	0	504	
6	0	0	0	0	513	
7	0	0	0	0	512	
8	0	0	0	0	511	
9	0	0	0	0	510	
10	0	0	0	0	514	
11	0	0	0	0	515	
12	0	0	0	0	518	
13	0	0	0	0	508	
14	0	0	0	0	505	
15	0	0	0	0	508	
0	0	0	0	0	511	
1	0	0	0	0	503	
2	0	0	0	0	500	
3	0	0	0	0	501	
4	0	0	0	0	495	
5	0	0	0	0	505	
6	0	0	0	0	519	
7	0	0	0	0	533	
8	0	0	0	0	529	
9	0	0	0	0	527	
10	0	0	0	0	515	
11	0	0	0	0	514	
12	0	0	0	0	515	
13	0	0	0	0	513	
14	0	0	0	0	507	
15	0	0	0	0	502	
0	0	0	0	0	505	
1	0	0	0	0	516	
2	0	0	0	0	522	
3	0	0	0	0	517	
4	0	0	0	0	503	
5	0	0	0	0	501	
6	0	0	0	0	508	
7	0	0	0	0	514	
8	0	0	0	0	508	
9	0	0	0	0	508	
10	0	0	0	0	504	
11	0	0	0	0	509	
12	0	0	0	0	512	
13	0	0	0	0	511	
14	0	0	0	0	503	
15	0	0	0	0	489	
0	0	0	0	0	506	
1	0	0	0	0	511	
2	0	0	0	0	495	
3	0	0	0	0	479	
4	0	0	0	0	498	
5	0	0	0	0	512	
6	0	0	0	0	523	
7	0	0	0	0	541	
8	0	0	0	0	564	
9	0	0	0	0	583	
10	0	0	0	0	563	
11	0	0	0	0	524	
12	0	0	0	0	505	
13	0	0	0	0	499	
14	0	0	0	0	484	
15	0	0	0	0	489	
0	0	0	0	0	487	
1	0	0	0	0	494	
2	0	0	0	0	500	
3	0	0	0	0	498	
4	0	0	0	0	499	
5	0	0	0	0	500	
6	0	0	0	0	502	
7	0	0	0	0	507	
8	0	0	0	0	515	
9	0	0	0	0	511	
10	0	0	0	0	518	
11	0	0	0	0	514	
12	0	0	0	0	510	
13	0	0	0	0	511	
14	0	0	0	0	512	
15	0	0	0	0	527	
0	0	0	0	0	518	
1	0	0	0	0	507	
2	0	0	0	0	506	
3	0	0	0	0	512	
4	0	0	0	0	513	
5	0	0	0	0	512	
6	0	0	0	0	505	
7	0	0	0	0	506	
8	0	0	0	0	513	
9	0	0	0	0	512	
10	0	0	0	0	510	
11	0	0	0	0	511	
12	0	0	0	0	511	
13	0	0	0	0	510	
14	0	0	0	0	511	
15	0	0	0	0	503	
0	0	0	0	0	510	
1	0	0	0	0	511	
2	0	0	0	0	510	
3	0	0	0	0	508	
4	0	0	0	0	511	
5	0	0	0	0	513	
6	0	0	0	0	513	
7	0	0	0	0	515	
8	0	0	0	0	510	
9	0	0	0	0	508	
10	0	0	0	0	513	
11	0	0	0	0	510	
12	0	0	0	0	509	
13	0	0	0	0	508	
14	0	0	0	0	510	
15	0	0	0	0	514	
0	0	0	0	0	520	
1	0	0	0	0	514	
2	0	0	0	0	507	
3	0	0	0	0	500	
4	0	0	0	0	504	
5	0	0	0	0	517	
6	0	0	0	0	508	
7	0	0	0	0	504	
8	0	0	0	0	507	
9	0	0	0	0	514	
10	0	0	0	0	520	
11	0	0	0	0	523	
12	0	0	0	0	523	
13	0	0	0	0	522	
14	0	0	0	0	505	
15	0	0	0	0	508	
0	0	0	0	0	520	
1	0	0	0	0	514	
2	0	0	0	0	502	
3	0	0	0	0	501	
4	0	0	0	0	499	
5	0	0	0	0	506	
6	0	0	0	0	515	
7	0	0	0	0	511	
8	0	0	0	0	503	
9	0	0	0	0	501	
10	0	0	0	0	503	
11	0	0	0	0	506	
12	0	0	0	0	515	
13	0	0	0	0	520	
14	0	0	0	0	530	
15	0	0	0	0	526	
0	0	0	0	0	519	
1	0	0	0	0	511	
2	0	0	0	0	503	
3	0	0	0	0	503	
4	0	0	0	0	502	
5	0	0	0	0	511	
6	0	0	0	0	519	
7	0	0	0	0	524	
8	0	0	0	0	527	
9	0	0	0	0	523	
10	0	0	0	0	516	
11	0	0	0	0	508	
12	0	0	0	0	504	
13	0	0	0	0	501	
14	0	0	0	0	499	
15	0	0	0	0	502	
0	0	0	0	0	503	
1	0	0	0	0	508	
2	0	0	0	0	508	
3	0	0	0	0	508	
4	0	0	0	0	510	
5	0	0	0	0	512	
6	0	0	0	0	515	
7	0	0	0	0	508	
8	0	0	0	0	504	
9	0	0	0	0	504	
10	0	0	0	0	509	
11	0	0	0	0	511	
12	0	0	0	0	512	
13	0	0	0	0	511	
14	0	0	0	0	508	
15	0	0	0	0	513	
0	0	0	0	0	523	
1	0	0	0	0	516	
2	0	0	0	0	508	
3	0	0	0	0	508	
4	0	0	0	0	513	
5	0	0	0	0	519	
6	0	0	0	0	516	
7	0	0	0	0	521	
8	0	0	0	0	518	
9	0	0	0	0	512	
10	0	0	0	0	509	
11	0	0	0	0	509	
12	0	0	0	0	509	
13	0	0	0	0	510	
14	0	0	0	0	512	
15	0	0	0	0	511	
0	0	0	0	0	510	
1	0	0	0	0	504	
2	0	0	0	0	504	
3	0	0	0	0	508	
4	0	0	0	0	505	
5	0	0	0	0	507	
6	0	0	0	0	519	
7	0	0	0	0	522	
8	0	0	0	0	520	
9	0	0	0	0	513	
10	0	0	0	0	505	
11	0	0	0	0	503	
12	0	0	0	0	508	
13	0	0	0	0	517	
14	0	0	0	0	521	
15	0	0	0	0	515	
0	0	0	0	0	513	
1	0	0	0	0	508	
2	0	0	0	0	508	
3	0	0	0	0	508	
4	0	0	0	0	503	
5	0	0	0	0	500	
6	0	0	0	0	500	
7	0	0	0	0	492	
8	0	0	0	0	487	
9	0	0	0	0	495	
10	0	0	0	0	505	
11	0	0	0	0	509	
12	0	0	0	0	512	
13	0	0	0	0	523	
14	0	0	0	0	528	
15	0	0	0	0	532	
0	0	0	0	0	518	
1	0	0	0	0	519	
2	0	0	0	0	527	
3	0	0	0	0	523	
4	0	0	0	0	524	
5	0	0	0	0	516	
6	0	0	0	0	506	
7	0	0	0	0	509	
8	0	0	0	0	511	
9	0	0	0	0	508	
10	0	0	0	0	511	
11	0	0	0	0	509	
12	0	0	0	0	510	
13	0	0	0	0	513	
14	0	0	0	0	504	
15	0	0	0	0	497	
0	0	0	0	0	505	
1	0	0	0	0	508	
2	0	0	0	0	507	
3	0	0	0	0	509	
4	0	0	0	0	501	
5	0	0	0	0	502	
6	0	0	0	0	512	
7	0	0	0	0	513	
8	0	0	0	0	507	
9	0	0	0	0	503	
10	0	0	0	0	505	
11	0	0	0	0	504	
12	0	0	0	0	502	
13	0	0	0	0	507	
14	0	0	0	0	517	
15	0	0	0	0	523	
0	0	0	0	0	521	
1	0	0	0	0	516	
2	0	0	0	0	518	
3	0	0	0	0	518	
4	0	0	0	0	513	
5	0	0	0	0	509	
6	0	0	0	0	518	
7	0	0	0	0	523	
8	0	0	0	0	511	
9	0	0	0	0	504	
10	0	0	0	0	511	
11	0	0	0	0	515	
12	0	0	0	0	514	
13	0	0	0	0	514	
14	0	0	0	0	507	
15	0	0	0	0	501	
0	0	0	0	0	502	
1	0	0	0	0	510	
2	0	0	0	0	518	
3	0	0	0	0	510	
4	0	0	0	0	511	
5	0	0	0	0	521	
6	0	0	0	0	529	
7	0	0	0	0	513	
8	0	0	0	0	511	
9	0	0	0	0	521	
10	0	0	0	0	508	
11	0	0	0	0	501	
12	0	0	0	0	502	
13	0	0	0	0	518	
14	0	0	0	0	521	
15	0	0	0	0	495	
0	0	0	0	0	490	
1	0	0	0	0	502	
2	0	0	0	0	498	
3	0	0	0	0	518	
4	0	0	0	0	559	
5	0	0	0	0	569	
6	0	0	0	0	544	
7	0	0	0	0	519	
8	0	0	0	0	496	
9	0	0	0	0	495	
10	0	0	0	0	486	
11	0	0	0	0	483	
12	0	0	0	0	489	
13	0	0	0	0	495	
14	0	0	0	0	506	
15	0	0	0	0	508	
0	0	0	0	0	510	
1	0	0	0	0	509	
2	0	0	0	0	515	
3	0	0	0	0	522	
4	0	0	0	0	530	
5	0	0	0	0	522	
6	0	0	0	0	504	
7	0	0	0	0	505	
8	0	0	0	0	515	
9	0	0	0	0	503	
10	0	0	0	0	497	
11	0	0	0	0	499	
12	0	0	0	0	504	
13	0	0	0	0	496	
14	0	0	0	0	494	
15	0	0	0	0	499	
0	0	0	0	0	511	
1	0	0	0	0	524	
2	0	0	0	0	513	
3	0	0	0	0	512	
4	0	0	0	0	519	
5	0	0	0	0	513	
6	0	0	0	0	500	
7	0	0	0	0	504	
8	0	0	0	0	509	
9	0	0	0	0	510	
10	0	0	0	0	505	
11	0	0	0	0	518	
12	0	0	0	0	515	
13	0	0	0	0	507	
14	0	0	0	0	507	
15	0	0	0	0	511	
0	0	0	0	0	520	
1	0	0	0	0	539	
2	0	0	0	0	524	
3	0	0	0	0	510	
4	0	0	0	0	527	
5	0	0	0	0	537	
6	0	0	0	0	530	
7	0	0	0	0	520	
8	0	0	0	0	503	
9	0	0	0	0	497	
10	0	0	0	0	510	
11	0	0	0	0	518	
12	0	0	0	0	506	
13	0	0	0	0	487	
14	0	0	0	0	488	
15	0	0	0	0	509	
0	0	0	0	0	510	
1	0	0	0	0	508	
2	0	0	0	0	512	
3	0	0	0	0	519	
4	0	0	0	0	527	
5	0	0	0	0	532	
6	0	0	0	0	519	
7	0	0	0	0	525	
8	0	0	0	0	511	
9	0	0	0	0	514	
10	0	0	0	0	513	
11	0	0	0	0	494	
12	0	0	0	0	478	
13	0	0	0	0	482	
14	0	0	0	0	494	
15	0	0	0	0	499	
0	0	0	0	0	512	
1	0	0	0	0	512	
2	0	0	0	0	505	
3	0	0	0	0	508	
4	0	0	0	0	519	
5	0	0	0	0	512	
6	0	0	0	0	504	
7	0	0	0	0	526	
8	0	0	0	0	530	
9	0	0	0	0	519	
10	0	0	0	0	518	
11	0	0	0	0	497	
12	0	0	0	0	481	
13	0	0	0	0	503	
14	0	0	0	0	518	
15	0	0	0	0	537	
0	0	0	0	0	536	
1	0	0	0	0	529	
2	0	0	0	0	530	
3	0	0	0	0	530	
4	0	0	0	0	527	
5	0	0	0	0	512	
6	0	0	0	0	502	
7	0	0	0	0	498	
8	0	0	0	0	497	
9	0	0	0	0	492	
10	0	0	0	0	488	
11	0	0	0	0	483	
12	0	0	0	0	480	
13	0	0	0	0	497	
14	0	0	0	0	508	
15	0	0	0	0	495	
0	0	0	0	0	493	
1	0	0	0	0	495	
2	0	0	0	0	494	
3	0	0	0	0	503	
4	0	0	0	0	524	
5	0	0	0	0	532	
6	0	0	0	0	532	
7	0	0	0	0	550	
8	0	0	0	0	572	
9	0	0	0	0	566	
10	0	0	0	0	539	
11	0	0	0	0	529	
12	0	0	0	0	510	
13	0	0	0	0	483	
14	0	0	0	0	464	
15	0	0	0	0	473	
0	0	0	0	0	483	
1	0	0	0	0	484	
2	0	0	0	0	491	
3	0	0	0	0	518	
4	0	0	0	0	530	
5	0	0	0	0	540	
6	0	0	0	0	539	
7	0	0	0	0	530	
8	0	0	0	0	512	
9	0	0	0	0	505	
10	0	0	0	0	520	
11	0	0	0	0	524	
12	0	0	0	0	524	
13	0	0	0	0	508	
14	0	0	0	0	498	
15	0	0	0	0	481	
0	0	0	0	0	474	
1	0	0	0	0	467	
2	0	0	0	0	470	
3	0	0	0	0	476	
4	0	0	0	0	479	
5	0	0	0	0	489	
6	0	0	0	0	513	
7	0	0	0	0	528	
8	0	0	0	0	536	
9	0	0	0	0	557	
10	0	0	0	0	574	
11	0	0	0	0	585	
12	0	0	0	0	570	
13	0	0	0	0	556	
14	0	0	0	0	548	
15	0	0	0	0	520	
0	0	0	0	0	495	
1	0	0	0	0	474	
2	0	0	0	0	458	
3	0	0	0	0	444	
4	0	0	0	0	455	
5	0	0	0	0	464	
6	0	0	0	0	476	
7	0	0	0	0	508	
8	0	0	0	0	525	
9	0	0	0	0	541	
10	0	0	0	0	542	
11	0	0	0	0	531	
12	0	0	0	0	518	
13	0	0	0	0	508	
14	0	0	0	0	493	
15	0	0	0	0	486	
0	0	0	0	0	491	
1	0	0	0	0	518	
2	0	0	0	0	531	
3	0	0	0	0	537	
4	0	0	0	0	550	
5	0	0	0	0	547	
6	0	0	0	0	533	
7	0	0	0	0	512	
8	0	0	0	0	494	
9	0	0	0	0	501	
10	0	0	0	0	558	
11	0	0	0	0	590	
12	0	0	0	0	534	
13	0	0	0	0	499	
14	0	0	0	0	456	
15	0	0	0	0	453	
0	0	0	0	0	457	
1	0	0	0	0	460	
2	0	0	0	0	471	
3	0	0	0	0	495	
4	0	0	0	0	496	
5	0	0	0	0	504	
6	0	0	0	0	499	
7	0	0	0	0	527	
8	0	0	0	0	555	
9	0	0	0	0	528	
10	0	0	0	0	507	
11	0	0	0	0	516	
12	0	0	0	0	533	
13	0	0	0	0	519	
14	0	0	0	0	491	
15	0	0	0	0	502	
0	0	0	0	0	525	
1	0	0	0	0	552	
2	0	0	0	0	577	
3	0	0	0	0	551	
4	0	0	0	0	489	
5	0	0	0	0	481	
6	0	0	0	0	520	
7	0	0	0	0	512	
8	0	0	0	0	490	
9	0	0	0	0	498	
10	0	0	0	0	508	
11	0	0	0	0	492	
